94.405503299482177, 94.416653660454386, 94.426588977164201, 94.435286172797859, 94.442723529904882, 94.448880721275984, 94.453738839283318, 94.457280423645557, 94.459489487578793, 94.460351542298326, 94.459853619837503, 94.457984294151359, 94.454733700475529, 94.450093552912278, 94.444057160218108, 94.436619439769203, 94.42777692968285, 94.417527799076353, 94.405871856444847, 94.392810556144411, 94.37834700296726, 94.362485954797933, 94.345233823343463, 94.326598672930771, 94.306590217367983, 94.285219814868313, 94.26250046103786, 94.238446779930101, 94.213075013173679, 94.186403007180346, 94.158450198444257, 94.129237596945117, 94.098787767669563, 94.067124810269036, 94.034274336872031, 94.000263448074207, 93.965120707129159, 93.928876112366041, 93.891561067863194, 93.853208352406895, 93.813852086769216, 93.773527699338331, 93.732271890139472, 93.690122593283277, 93.647118937883249, 93.603301207485828, 93.558710798055444, 93.513390174561721, 93.467382826217204, 93.420733220414661, 93.373486755415499, 93.325689711841974, 93.277389203028179, 93.228633124284983, 93.179470101136758, 93.129949436588262, 93.080121057481833, 93.030035460005351, 92.979743654414534, 92.929297109030983, 92.878747693582255, 92.828147621947153, 92.77754939437429, 92.72700573923855, 92.676569554405077, 92.626293848266798, 92.576231680525353, 92.526436102784274, 92.476960099022875, 92.427856526021742, 92.379178053808346, 92.330977106193984, 92.283305801470746, 92.236215893339192, 92.189758712136168, 92.143985106432254, 92.098945385068276, 92.054689259699387, 92.01126578791488, 91.968723317002272, 91.9271094284219, 91.886470883059218, 91.846853567319357, 91.808302440130092, 91.770861480915883, 91.734573638605795, 91.699480781738117, 91.665623649720018, 91.633041805303847, 91.601773588335746, 91.571856070834741, 91.543325013456169, 91.516214823393298, 91.490558513769244, 91.466387664568671, 91.443732385158441, 91.422621278443529, 91.403081406702697, 91.385138259147411, 91.368815721244871, 91.354136045843163, 91.341119826136975, 91.329785970507132, 91.320151679267354, 91.312232423348746, 91.30604192494954, 91.301592140176794, 91.298893243702949, 91.297953615459178, 91.298779829383562, 91.301376644242112, 91.305746996534609, 91.311891995499167, 91.319810920223077, 91.329501218867492, 91.340958510010267, 91.354176586108366, 91.369147419079326, 91.385861167998769, 91.404306188907952, 91.424469046723601, 91.446334529238953, 91.469885663203044, 91.495103732462908, 91.521968298150171, 91.550457220891957, 91.580546685023222, 91.612211224774441, 91.645423752408689, 91.680155588276236, 91.716376492756112, 91.754054700048329, 91.793156953782002, 91.833648544398869, 91.875493348271505, 91.918653868513744, 91.963091277436959, 92.00876546060617, 92.05563506244556, 92.103657533343124, 92.152789178201701, 92.20298520638093, 92.254199782973913, 92.306386081361765, 92.35949633698435, 92.413481902267407, 92.468293302643573, 92.52388029360273, 92.58019191870622, 92.637176568499541, 92.694782040254552, 92.752955598473463, 92.81164403608436, 92.870793736257852, 92.930350734773441, 92.990260782862975, 93.050469410459385, 93.110921989775804, 93.17156379914222, 93.232340087025193, 93.293196136155487, 93.354077327689154, 93.41492920532707, 93.475697539317139, 93.536328390265666, 93.596768172680427, 93.656963718173969, 93.716862338249314, 93.776411886596833, 93.835560820826544, 93.894258263565007, 93.952454062841198, 94.01009885169411, 94.067144106926676, 94.123542206939433, 94.179246488573369, 94.234211302894209, 94.288392069851724, 94.341745331748456, 94.394228805453054, 94.445801433296495, 94.496423432588614, 94.546056343695213, 94.594663076618971, 94.642207956024947, 94.688656764658163, 94.733976785098733, 94.778136839804162, 94.821107329388937, 94.862860269094313, 94.90336932340341, 94.942609838757903, 94.980558874335884, 95.017195230851243, 95.05249947733914, 95.086453975892937, 95.119042904319869, 95.150252276687112, 95.18006996173095, 95.208485699103321, 95.235491113435486, 95.261079726197252, 95.285246965335659, 95.30799017267897, 95.329308609092834, 95.349203457380156, 95.36767782291794, 95.384736732026184, 95.400387128068601, 95.414637865284547, 95.427499700358126, 95.438985281728819, 95.449109136654499, 95.457887656036419, 95.465339077022819, 95.47148346340613, 95.476342683834588, 95.479940387858733, 95.482301979839434, 95.483454590742596, 95.483427047851208, 95.482249842426569, 95.479955095352594, 95.476576520801416, 95.472149387956918, 95.466710480841058, 95.460298056283406, 95.452951800082147, 95.44471278140324, 95.435623405468874, 95.425727364586464, 95.415069587573498, 95.403696187633145, 95.391654408739839, 95.378992570593454, 95.365760012204476, 95.352007034172772, 95.337784839725515, 95.323145474578851, 95.308141765693307, 95.292827258989817, 95.277256156098801, 95.261483250211427, 95.245563861108366, 95.22955376943753, 95.213509150316909, 95.197486506337427, 95.181542600041624, 95.16573438595718, 95.150118942259724, 95.134753402146217, 95.119694884995255, 95.105000427394785, 95.090726914114441, 95.076931009104072, 95.063669086596278, 95.050997162392477, 95.038970825412193, 95.027645169584389, 95.017074726159251, 95.007313396518825, 94.998414385565013, 94.990430135760889, 94.983412261902785, 94.977411486699481, 94.972477577231501, 94.968659282366986, 94.966004271205776, 94.96455907262326, 94.964369015986662, 94.965478173110498, 94.967929301522361, 94.971763789103179, 94.977021600168342, 94.983741223054011, 94.991959619268755, 95.001712174272527, 95.013032649940513, 95.025953138768486, 95.040504019874476, 95.056713916850015, 95.074609657510138, 95.094216235591958, 95.115556774447583, 95.138652492775094, 95.163522672430688, 95.190184628359177, 95.218653680682621, 95.248943128979619, 95.281064228788637, 95.31502617036432, 95.350836059714723, 95.388498901943322, 95.428017586918642, 95.469392877289252, 95.512623398863425, 95.557705633364492, 95.60463391357554, 95.65340042088161, 95.703995185213657, 95.756406087400464, 95.810618863925882, 95.866617114091511, 95.924382309578476, 95.983893806401085, 96.045128859241672, 96.108062638153882, 96.172668247618489, 96.238916747932322, 96.306777178910664, 96.376216585878211, 96.447200047922252, 96.519690708379869, 96.593649807526134, 96.669036717431212, 96.745808978947991, 96.823922340792308, 96.903330800674198, 96.983986648436286, 97.065840511153425, 97.148841400145699, 97.232936759853644, 97.318072518523238, 97.404193140647379, 97.491241681104256, 97.579159840937791, 97.667888024716433, 97.757365399409622, 97.847529954717473, 97.938318564788048, 98.02966705125543, 98.121510247527809, 98.213782064258382, 98.306415555924303, 98.399342988443294, 98.4924959077523, 98.585805209272934, 98.679201208188758, 98.772613710455445, 98.865972084467415, 98.959205333300815, 99.052242167453912, 99.145011078005183, 99.237440410107482, 99.32945843673825, 99.420993432624357, 99.511973748259251, 99.602327883931792, 99.691984563684358, 99.780872809119288, 99.868922012971197, 99.956062012364967, 100.04222316167798, 100.12733640492614, 100.21133334759399, 100.2941463278293, 100.37570848692371, 100.45595383900158, 100.53481733983972, 100.61223495474302, 100.68814372539933, 100.76248183564182, 100.83518867604437, 100.90620490728004, 100.97547252217217, 101.0429349063695, 101.10853689757884, 101.17222484328997, 101.23394665692868, 101.29365187237688, 101.35129169679918, 101.40681906171788, 101.46018867228132, 101.51135705466923, 101.56028260158557, 101.60692561578767, 101.65124835160387, 101.69321505439476, 101.73279199791513, 101.76994751953515, 101.80465205328309, 101.83687816067321, 101.86660055928618, 101.89379614907025, 101.91844403633507, 101.94052555541329, 101.96002428796538, 101.97692607990849, 101.99121905595059, 102.00289363171554, 102.01194252344605, 102.01836075527497, 102.02214566405793, 102.02329690176363, 102.02181643541874, 102.01770854461036, 102.01097981654895, 102.00163913869808, 101.98969768898172, 101.97516892357928, 101.9580685623249, 101.93841457172685, 101.91622714562887, 101.89152868353382, 101.86434376661734, 101.83469913145764, 101.80262364151226, 101.76814825637564, 101.73130599885057, 101.69213191987424, 101.65066306133606, 101.60693841683234, 101.5609988904001, 101.51288725327875, 101.46264809874839, 101.41032779509472, 101.35597443675591, 101.2996377937047, 101.241369259124, 101.18122179543508, 101.11924987873833, 101.05550944173018, 100.99005781515945, 100.92295366788974, 100.85425694563409, 100.7840288084318, 100.71233156693648, 100.6392286175866, 100.56478437673222, 100.48906421378939, 100.41213438349891, 100.33406195736325, 100.25491475433893, 100.17476127086105, 100.09367061027775, 100.01171241177273, 99.928956778854911, 99.845474207494291, 99.761335513983212, 99.676611762603144, 99.591374193176293, 99.505694148582521, 99.419643002320356, 99.333292086192813, 99.246712618196625, 99.159975630694532, 99.073151898948112, 98.98631187009056, 98.899525592616541, 98.812862646465604, 98.72639207377469, 98.640182310376986, 98.554301118118758, 98.46881551806888, 98.383791724693367, 98.299295081064827, 98.215389995176935, 98.132139877432635, 98.049607079372208, 97.967852833707155, 97.886937195723419, 97.806918986115917, 97.727855735315458, 97.649803629366104, 97.572817457409812, 97.496950560834236, 97.422254784134935, 97.34878042754454, 97.276576201477241, 97.205689182834277, 97.136164773217061, 97.068046659088296, 97.001376773922146, 96.936195262381048, 96.872540446554268, 96.810448794291844, 96.749954889663329, 96.691091405570518, 96.633889078539355, 96.578376685714119, 96.524581024074266, 96.472526891892144, 96.422237072447231, 96.37373232000931, 96.327031348100775, 96.282150820046539, 96.239105341815417, 96.197907457156234, 96.158567645028427, 96.121094319323518, 96.085493830873617, 96.051770471737186, 96.019926481753004, 95.989962057348308, 95.961875362585928, 95.935662542432027, 95.911317738224071, 95.888833105315413, 95.868198832871457, 95.849403165789028, 95.832432428709623, 95.817271052091854, 95.803901600310652, 95.792304801744251, 95.782459580810311, 95.774343091910055, 95.767930755235483, 95.763196294396167, 95.760111775815773, 95.758647649850289, 95.758772793576426, 95.760454555195849, 95.763658800002091, 95.768349957852138, 95.774491072084786, 95.782043849826977, 95.790968713625546, 95.801224854342578, 95.81277028525065, 95.825561897262659, 95.839555515229179, 95.854705955237662, 95.870967082843464, 95.888291872164487, 95.90663246576915, 95.925940235286134, 95.94616584266538, 95.967259302017823, 95.989170041960918, 96.011846968397222, 96.035238527652965, 96.059292769902456, 96.083957412804935, 96.10917990527966, 96.134907491346212, 96.161087273954962, 96.187666278735492, 96.214591517588943, 96.241810052051719, 96.269269056357317, 96.296915880125653, 96.324698110607144, 96.35256363441151, 96.380460698652001, 96.408337971434136, 96.436144601622942, 96.463830277820179, 96.491345286485611, 96.518640569138086, 96.545667778571953, 96.572379334026934, 96.598728475249729, 96.624669315389056, 96.650156892664086, 96.675147220751754, 96.699597337836408, 96.723465354269933, 96.746710498789184, 96.769293163243105, 96.79117494577973, 96.81231869244867, 96.832688537174292, 96.852249940057689, 96.870969723967846, 96.888816109384152, 96.905758747454428, 96.921768751234552, 96.936818725079618, 96.950882792156065, 96.963936620049125, 96.975957444439729, 96.986924090831351, 96.996816994302975, 97.005618217273934, 97.013311465264749, 97.019882100639435, 97.025317154321527, 97.029605335473946, 97.032737039137885, 97.034704351827443, 97.035501055079123, 97.035122626957971, 97.033566241524383, 97.030830766267655, 97.026916757515295, 97.021826453829533, 97.015563767403734, 97.008134273475122, 96.999545197771297, 96.989805402011228, 96.97892536748374, 96.966917176726739, 96.95379449333555, 96.939572539929145, 96.924268074304351, 96.907899363812561, 96.89048615799355, 96.872049659502963, 96.852612493373996, 96.832198674652247, 96.810833574448807, 96.788543884453247, 96.765357579955719, 96.741303881423093, 96.716413214681197, 96.690717169751792, 96.664248458398191, 96.637040870432685, 96.609129228840601, 96.580549343777932, 96.551337965499926, 96.521532736278687, 96.491172141369915, 96.460295459089906, 96.428942710063367, 96.397154605704941, 96.364972495997648, 96.332438316631752, 96.299594535568758, 96.266484099094498, 96.233150377428444, 96.19963710995269, 96.16598835012833, 96.132248410164436, 96.098461805506332, 96.064673199209196, 96.030927346263368, 95.997269037938182, 95.963743046208592, 95.930394068332291, 95.897266671641972, 95.864405238616143, 95.831853912296154, 95.799656542109915, 95.767856630167842, 95.736497278092529, 95.705621134443746, 95.675270342800516, 95.645486490558866, 95.616310558505432, 95.587782871223439, 95.559943048389172, 95.532829957013007, 95.506481664680365, 95.480935393844661, 95.45622747722463, 95.4323933143544, 95.409467329337701, 95.387482929849668, 95.366472467435429, 95.346467199145323, 95.327497250552682, 95.30959158019084, 95.292777945451249, 95.277082869976013, 95.262531612582976, 95.249148137753309, 95.23695508771489, 95.225973756148221, 95.216224063544473, 95.207724534237997, 95.20049227513789, 95.19454295617868, 95.189890792509019, 95.186548528435523, 95.18452742313427, 95.183837238145486, 95.184486226658692, 95.186481124597179, 95.189827143509206, 95.194527965266857, 95.200585738576606, 95.208001077299656, 95.216773060579129, 95.226899234770642, 95.238375617167165, 95.251196701510892, 95.26535546527974, 95.280843378735554, 95.297650415718692, 95.315765066171394, 95.335174350370451, 95.355863834848805, 95.377817649980258, 95.401018509205429, 95.425447729868722, 95.451085255639612, 95.47790968048578, 95.505898274167009, 95.535027009214147, 95.565270589358974, 95.596602479375377, 95.628994936294859, 95.662419041953726, 95.696844736831679, 95.732240855136993, 95.768575161093963, 95.805814386386544, 95.843924268710509, 95.882869591385656, 95.922614223978741, 95.963121163885276, 96.004352578820004, 96.046269850162318, 96.088833617103035, 96.132003821539101, 96.175739753660267, 96.220000098172491, 96.264742981101818, 96.309926017121498, 96.35550635734576, 96.401440737532099, 96.44768552663416, 96.494196775647282, 96.540930266688576, 96.587841562251967, 96.634886054581557, 96.682019015103137, 96.729195643856656, 96.776371118871026, 96.823500645423778, 96.870539505127851, 96.917443104787864, 96.964167024970592, 97.010667068231669, 97.056899306944771, 97.102820130676861, 97.14838629305639, 97.193554958080711, 97.238283745809923, 97.282530777396076, 97.326254719396687, 97.369414827322714, 97.411970988373767, 97.453883763311097, 97.495114427423971, 97.535625010543811, 97.575378336062087, 97.614338058910661, 97.652468702462002, 97.689735694312319, 97.726105400906903, 97.761545160973185, 97.796023317725627, 97.829509249809675, 97.861973400952863, 97.893387308292901, 97.923723629354768, 97.952956167650541, 97.981059896876147, 98.008010983683107, 98.033786809003232, 98.05836598790772, 98.081728387982295, 98.103855146202633, 98.124728684297509, 98.144332722586185, 98.162652292280342, 98.179673746243481, 98.195384768200029, 98.209774380390385, 98.222832949669851, 98.234552192050216, 98.244925175685125, 98.253946322303932, 98.261611407096495, 98.267917557058297, 98.272863247803272, 98.276448298855243, 98.2786738674303, 98.279542440724299, 98.279057826721541, 98.277225143541841, 98.274050807345787, 98.269542518819392, 98.263709248259516, 98.256561219286553, 98.24810989120779, 98.238367940060783, 98.227349238364695, 98.215068833609735, 98.201542925517344, 98.186788842103454, 98.170825014579563, 98.153670951127566, 98.135347209584438, 98.115875369076406, 98.095278000640349, 98.073578636873322, 98.050801740652091, 98.026972672964078, 98.002117659893372, 97.976263758805743, 97.949438823777825, 97.921671470315573, 97.892991039408585, 97.86342756096667, 97.833011716686983, 97.801774802398469, 97.76974868993311, 97.73696578857151, 97.703459006113007, 97.669261709618354, 97.634407685875289, 97.598931101636225, 97.562866463677651, 97.526248578730318, 97.489112513331037, 97.451493553643644, 97.413427165299993, 97.374948953308831, 97.336094622081376, 97.296899935622022, 97.257400677932296, 97.217632613673658, 97.177631449138374, 97.13743279357287, 97.097072120899043, 97.056584731879198, 97.016005716767751, 96.975369918493172, 96.934711896412253, 96.894065890678334, 96.853465787263133, 96.812945083672162, 96.772536855391849, 96.732273723105095, 96.692187820711254, 96.652310764186424, 96.612673621315295, 96.573306882328851, 96.534240431478054, 96.495503519572992, 96.457124737515571, 96.419131990852819, 96.381552475376168, 96.344412653789703, 96.307738233471511, 96.271554145346457, 96.23588452389231, 96.200752688294884, 96.166181124769295, 96.132191470062367, 96.098804496147253, 96.066040096124524, 96.033917271336691, 96.00245411970576, 95.971667825300131, 95.941574649135262, 95.912189921211791, 95.883528033792274, 95.855602435916722, 95.828425629155291, 95.802009164594708, 95.776363641053578, 95.751498704520117, 95.727423048804454, 95.704144417395653, 95.681669606512116, 95.660004469333359, 95.639153921398616, 95.619121947156131, 95.599911607647613, 95.581525049306975, 95.563963513856407, 95.547227349275715, 95.531316021824139, 95.516228129090877, 95.501961414048054, 95.488512780080271, 95.475878306964262, 95.464053267768989, 95.453032146646208, 95.442808657482331, 95.43337576337774, 95.42472569692282, 95.416849981236084, 95.409739451729436, 95.403384278567032, 95.397773989779594, 95.392897494999417, 95.388743109776883, 95.385298580441855, 95.382551109470981, 95.380487381321302, 95.379093588691362, 95.37835545917001, 95.378258282231769, 95.378786936539555, 95.379925917512907, 95.38165936512182, 95.383971091864041, 95.386844610886413, 95.390263164207298, 95.394209751001114, 95.398667155902174, 95.403617977288988, 95.409044655507103, 95.414929500991121, 95.421254722245664, 95.428002453646101, 95.435154783019883, 95.442693778970025, 95.450601517902356, 95.458860110719826, 95.467451729146873, 95.476358631647088, 95.48556318890013, 95.495047908802434, 95.504795460958036, 95.514788700627506, 95.525010692101915, 95.535444731471941, 95.54607436876131, 95.556883429396422, 95.567856034984018, 95.578976623369499, 95.590229967951984, 95.60160119622968, 95.613075807553912, 95.624639690069557, 95.636279136820534, 95.647980861001187, 95.659732010336739, 95.671520180573992, 95.68333342806865, 95.69516028145388, 95.706989752379116, 95.718811345306307, 95.730615066354503, 95.742391431184828, 95.754131471918186, 95.765826743080694, 95.777469326572785, 95.789051835658825, 95.800567417977803, 95.812009757572596, 95.823373075942939, 95.834652132122415, 95.845842221786128, 95.856939175394047, 95.867939355378212, 95.87883965238214, 95.889637480563124, 95.900330771968953, 95.910917970002302, 95.921398021987002, 95.931770370851453, 95.942034945947015, 95.952192153019041, 95.962242863349871, 95.972188402094957, 95.98203053583363, 95.991771459357309, 96.001413781720018, 96.010960511574964, 96.020415041825274, 96.029781133614335, 96.039062899684296, 96.048264787133149, 96.057391559598344, 96.066448278898761, 96.075440286166668, 96.084373182501977, 96.093252809180512, 96.10208522745225, 96.110876697961672, 96.119633659825794, 96.128362709405778, 96.137070578806473, 96.145764114141457, 96.154450253599038, 96.163136005346203, 96.171828425308235, 96.180534594859964, 96.189261598467269, 96.198016501314754, 96.206806326959253, 96.215638035043639, 96.22451849911161, 96.233454484557285, 96.242452626749781, 96.251519409366935, 96.26066114297646, 96.269883943900055, 96.279193713395912, 96.28859611719534, 96.298096565428807, 96.30770019297394, 96.317411840261713, 96.327236034571342, 96.337176971848223, 96.347238499074962, 96.357424097227522, 96.367736864845881, 96.37817950224823, 96.388754296417005, 96.399463106584832, 96.410307350544755, 96.421287991712248, 96.432405526960778, 96.443659975256708, 96.455050867112348, 96.466577234880447, 96.47823760390817, 96.490029984569645, 96.501951865193021, 96.514000205899364, 96.52617143336613, 96.538461436529388, 96.550865563236144, 96.563378617856884, 96.575994859867848, 96.588708003409579, 96.601511217829241, 96.614397129210033, 96.627357822891554, 96.640384846982755, 96.653469216868132, 96.666601420705675, 96.679771425913117, 96.69296868664081, 96.706182152222496, 96.719400276599828, 96.732611028710181, 96.745801903829403, 96.758959935856197, 96.772071710528166, 96.785123379552331, 96.798100675636903, 96.810988928406005, 96.823773081180192, 96.836437708601679, 96.848967035084996, 96.861344954069367, 96.873555048050932, 96.885580609368276, 96.897404661717175, 96.9090099823662, 96.920379125046026, 96.931494443481867, 96.94233811554048, 96.952892167958325, 96.963138501620804, 96.973058917356937, 96.982635142217703, 96.991848856200548, 97.00068171938679, 97.009115399453037, 97.017131599521008, 97.024712086306906, 97.03183871853166, 97.038493475553935, 97.044658486185057, 97.050316057646, 97.055448704626798, 97.060039178406512, 97.06407049599251, 97.067525969238631, 97.070389233899846, 97.072644278581464, 97.07427547354213, 97.075267599307182, 97.075605875051949, 97.075275986713123, 97.074264114785151, 97.07255696176243, 97.070141779184283, 97.067006394243492, 97.063139235916537, 97.058529360576657, 97.053166477049487, 97.047040971072732, 97.040143929121186, 97.032467161559495, 97.024003225085352, 97.014745444427717, 97.004687933262701, 96.993825614314929, 96.982154238608317, 96.969670403834613, 96.956371571808319, 96.942256084975782, 96.927323181950271, 96.911573012042936, 96.895006648764195, 96.877626102267214, 96.859434330710215, 96.840435250513337, 96.820633745486958, 96.800035674812818, 96.778647879854759, 96.756478189784985, 96.733535426005645, 96.709829405353318, 96.685370942070051, 96.660171848531064, 96.634244934717202, 96.607604006423514, 96.580263862195977, 96.552240288991399, 96.523550056555294, 96.494210910515818, 96.464241564192363, 96.433661689119461, 96.402491904289349, 96.370753764114824, 96.338469745120904, 96.305663231370659, 96.272358498634688, 96.238580697315129, 96.204355834136194, 96.169710752614932, 96.134673112328727, 96.099271366994998, 96.063534741383606, 96.027493207081108, 95.991177457128899, 95.954618879559561, 95.91784952985472, 95.880902102352877, 95.843809900632635, 95.806606806903559, 95.76932725043217, 95.732006175038563, 95.694679005693857, 95.657381614255371, 95.620150284374958, 95.583021675617346, 95.5460327868267, 95.509220918782091, 95.47262363618114, 95.436278728993685, 95.400224173229589, 95.364498091161906, 95.329138711051627, 95.294184326418844, 95.259673254906005, 95.225643796780929, 95.192134193126364, 95.159182583764206, 95.126826964964238, 95.095105146984466, 95.064054711495515, 95.033712968936101, 95.004116915852336, 94.975303192270729, 94.947308039154862, 94.920167255998265, 94.893916158603133, 94.868589537097591, 94.844221614240354, 94.820846004066084, 94.79849567092046, 94.777202888936344, 94.756999202001012, 94.737915384264483, 94.719981401238584, 94.703226371534413, 94.687678529289357, 94.673365187328372, 94.660312701108978, 94.648546433495071, 94.638090720406339, 94.628968837386594, 94.621202967136469, 94.614814168052959, 94.60982234381639, 94.606246214068292, 94.604103286217267, 94.603409828413419, 94.604180843727448, 94.606430045571301, 94.610169834394469, 94.615411275689723, 94.622164079340607, 94.630436580339861, 94.640235720909814, 94.65156703405043, 94.664434628541756, 94.678841175425219, 94.694787895986096, 94.712274551257806, 94.731299433068486, 94.751859356645681, 94.773949654796624, 94.797564173676662, 94.82269527015923, 94.849333810816404, 94.877469172519795, 94.907089244667375, 94.938180433041865, 94.970727665302675, 95.004714398112498, 95.040122625899016, 95.076932891246216, 95.115124296912853, 95.154674519470476, 95.195559824551893, 95.237755083700804, 95.281233792808806, 95.32596809212653, 95.371928787832346, 95.419085375140213, 95.467406062927537, 95.516857799860475, 95.56740630199387, 95.619016081819936, 95.671650478738982, 95.725271690923392, 95.779840808543312, 95.835317848323811, 95.891661789397276, 95.948830610418369, 96.006781327901038, 96.065470035742734, 96.124851945892971, 96.184881430126183, 96.245512062875576, 96.306696665083805, 96.368387349025042, 96.430535564051141, 96.493092143214966, 96.556007350720648, 96.619230930151105, 96.682712153421505, 96.746399870406549, 96.810242559188012, 96.874188376868958, 96.938185210899903, 97.002180730860644, 97.06612244064236, 97.129957730972947, 97.193633932227698, 97.257098367468444, 97.32029840565211, 97.383181514950195, 97.445695316121089, 97.507787635874621, 97.569406560171473, 97.630500487396986, 97.691018181350017, 97.750908823988553, 97.810122067872229, 97.868608088242908, 97.926317634685603, 97.9832020823102, 98.039213482397585, 98.094304612451054, 98.148429025598702, 98.201541099288036, 98.253596083218937, 98.304550146460429, 98.354360423695198, 98.402985060542434, 98.45038325790307, 98.496515315279439, 98.541342673016956, 98.584827953420927, 98.626935000699675, 98.66762891968699, 98.706876113300979, 98.744644318692508, 98.780902642043571, 98.815621591972615, 98.848773111509118, 98.880330608597987, 98.910268985098384, 98.938564664242762, 98.965195616521953, 98.990141383966176, 99.013383102792361, 99.034903524389719, 99.054687034617999, 99.07271967139512, 99.08898914055149, 99.103484829931205, 99.116197821721528, 99.127120902996211, 99.13624857445609, 99.143577057357049, 99.149104298613906, 99.152829974073185, 99.154755489948187, 99.154883982412741, 99.153220315351803, 99.149771076269886, 99.144544570358278, 99.13755081272717, 99.128801518808231, 99.118310092936667, 99.106091615123603, 99.092162826031341, 99.076542110166145, 99.059249477306835, 99.040306542185405, 99.01973650244399, 98.997564114887652, 98.973815670060958, 98.948518965172212, 98.921703275396226, 98.893399323585484, 98.863639248420739, 98.832456571037895, 98.799886160163979, 98.765964195802582, 98.730728131505757, 98.694216655275127, 98.656469649133584, 98.61752814741196, 98.577434293796045, 98.536231297181573, 98.49396338638411, 98.450675763755555, 98.406414557755568, 98.36122677453308, 98.31516024856812, 98.26826359243131, 98.220586145713469, 98.172177923184549, 98.123089562236714, 98.07337226967195, 98.023077767890697, 97.972258240543553, 97.920966277703457, 97.869254820622643, 97.817177106132178, 97.764786610747393, 97.712136994542078, 97.659282044851437, 97.606275619868711, 97.553171592196364, 97.500023792415519, 97.44688595273594, 97.393811650789132, 97.340854253627469, 97.288066861990501, 97.235502254902016, 97.183212834657482, 97.131250572264619, 97.079666953396483, 97.028512924917848, 96.977838842043681, 96.9276944161887, 96.878128663565377, 96.829189854587767, 96.780925464137198, 96.73338212274389, 96.686605568740148, 96.640640601436601, 96.595531035373199, 96.551319655696531, 96.508048174711192, 96.465757189654141, 96.424486141737034, 96.384273276502995, 96.345155605540285, 96.307168869593966, 96.270347503117762, 96.234724600302386, 96.200331882618755, 96.167199667910168, 96.135356841067079, 96.104830826316146, 96.075647561152351, 96.047831471942743, 96.021405451226499, 95.99639083673668, 95.972807392162636, 95.950673289676544, 95.930005094238211, 95.910817749696463, 95.893124566698589, 95.876937212421367, 95.862265702131282, 95.849118392581929, 95.837501977254433, 95.827421483442308, 95.818880271183161, 95.811880034034729, 95.806420801693747, 95.802500944449122, 95.800117179465147, 95.799264578882543, 95.799936579726861, 95.80212499560993, 95.805820030207883, 95.811010292499319, 95.817682813741257, 95.825823066163167, 95.835414983353701, 95.846440982314689, 95.858881987154433, 95.872717454390383, 95.887925399830763, 95.904482427000062, 95.922363757074805, 95.941543260292022, 95.961993488792032, 95.98368571085588, 96.006589946494913, 96.030675004350343, 96.055908519857041, 96.082256994626064, 96.109685836998949, 96.138159403723137, 96.167641042701277, 96.198093136760349, 96.229477148390188, 96.261753665397762, 96.294882447421358, 96.328822473251392, 96.363531988899993, 96.398968556363357, 96.435089103018313, 96.471849971595248, 96.509206970668416, 96.547115425603465, 96.585530229902773, 96.624405896888248, 96.663696611659944, 96.703356283271191, 96.743338597057573, 96.783597067059532, 96.82408508847702, 96.86475599009502, 96.905563086618969, 96.94645973085963, 96.987399365706111, 97.028335575826986, 97.069222139040917, 97.110013077295221, 97.150662707195579, 97.191125690028215, 97.231357081216245, 97.27131237915485, 97.310947573367898, 97.350219191933618, 97.389084348121159, 97.42750078619008, 97.465426926296288, 97.502821908457193, 97.539645635523982, 97.575858815115026, 97.611423000460803, 97.646300630117949, 97.680455066505019, 97.713850633220204, 97.746452651097499, 97.77822747296392, 97.809142517057538, 97.83916629907236, 97.868268462793779, 97.896419809293079, 97.923592324648567, 97.949759206165879, 97.974894887068373, 97.998975059633906, 98.021976696752617, 98.043878071885885, 98.064658777405867, 98.084299741298111, 98.102783242211359, 98.120092922842232, 98.13621380164129, 98.151132282832961, 98.164836164739867, 98.177314646408334, 98.188558332529368, 98.198559236656607, 98.207310782719162, 98.214807804835019, 98.221046545427569, 98.226024651654029, 98.229741170153815, 98.2321965401282, 98.233392584764772, 98.23333250102101, 98.232020847784725, 98.229463532429989, 98.225667795789661, 98.220642195567009, 98.214396588212153, 98.206942109287979, 98.198291152356433, 98.188457346412378, 98.177455531899597, 98.165301735340449, 98.152013142615303, 98.137608070928366, 98.122105939497828, 98.10552723901101, 98.08789349988399, 98.069227259371019, 98.049552027564829, 98.02889225233551, 98.007273283252758, 97.984721334540154, 97.9612634471099, 97.936927449727833, 97.911741919359926, 97.885736140750936, 97.858940065289701, 97.831384269212577, 97.803099911199865, 97.774118689420561, 97.744472798080579, 97.714194883528776, 97.68331799998009, 97.651875564909872, 97.61990131417754, 97.587429256937341, 97.554493630392329, 97.521128854450424, 97.487369486339446, 97.453250175238381, 97.418805616983192, 97.384070508903704, 97.349079504848333, 97.313867170454429, 97.278467938718308, 97.242916065923879, 97.207245587981532, 97.171490277234923, 97.135683599787725, 97.099858673403844, 97.064048226034615, 97.028284555022935, 96.992599487035619, 96.957024338774062, 96.921589878510645, 96.886326288498893, 96.851263128304325, 96.816429299098857, 96.781853008964916, 96.747561739250372, 96.713582212014714, 96.679940358607439, 96.646661289415633, 96.613769264817293, 96.581287667375491, 96.549238975307546, 96.517644737258337, 96.486525548410754, 96.45590102795876, 96.425789797971646, 96.396209463672008, 96.367176595152216, 96.338706710548109, 96.310814260691032, 96.283512615253727, 96.256814050405737, 96.230729737991695, 96.20526973624338, 96.180442982035274, 96.156257284690113, 96.132719321340218, 96.109834633848024, 96.087607627286474, 96.066041569979134, 96.04513859509629, 96.024899703804209, 96.005324769957923, 95.986412546331906, 95.968160672375191, 95.950565683480718, 95.933623021751913, 95.917327048252275, 95.901671056717646, 95.886647288712069, 95.872246950204598, 95.858460229543354, 95.84527631680082, 95.832683424462715, 95.820668809432377, 95.809218796317808, 95.79831880197095, 95.787953361243211, 95.778106153922806, 95.768760032816488, 95.759897052936381, 95.751498501752295, 95.743544930468587, 95.736016186281674, 95.728891445575243, 95.72214924800771, 95.715767531444328, 95.709723667689502, 95.703994498967802, 95.698556375105255, 95.693385191362125, 95.688456426863624, 95.683745183578893, 95.679226225793897, 95.674874020026351, 95.670662775328083, 95.666566483920803, 95.662558962111234, 95.658613891428971, 95.654704859933631, 95.65080540363418, 95.646889047965701, 95.642929349267774, 95.638899936207508, 95.634774551093585, 95.630527091023609, 95.626131648811352, 95.621562553636792, 95.616794411366598, 95.611802144487825, 95.606561031604372, 95.601046746439707, 95.59523539629609, 95.589103559915728, 95.582628324694966, 95.575787323199577, 95.568558768932959, 95.560921491307568, 95.55285496977227, 95.544339367051094, 95.535355561445058, 95.525885178155278, 95.515910619584005, 95.505415094571617, 95.494382646529999, 95.48279818043315, 95.470647488628117, 95.457917275430447, 95.444595180469875, 95.430669800753478, 95.416130711415832, 95.400968485126754, 95.385174710128624, 95.368742006878833, 95.351664043271299, 95.333935548417401, 95.315552324963818, 95.296511259930696, 95.2768103340523, 95.25644862960651, 95.235426336719897, 95.213744758138461, 95.191406312454902, 95.168414535785743, 95.144774081894184, 95.120490720755356, 95.095571335564514, 95.070023918187431, 95.043857563059746, 95.017082459537519, 94.989709882707942, 94.961752182670537, 94.933222772298549, 94.904136113494985, 94.874507701959033, 94.844354050479694, 94.813692670775964, 94.782542053905431, 94.750921649263759, 94.718851842200152, 94.686353930276354, 94.653450098196544, 94.620163391439533, 94.586517688625165, 94.552537672648171, 94.518248800615751, 94.483677272625101, 94.448849999420148, 94.413794568967177, 94.378539211991011, 94.343112766514906, 94.307544641448459, 94.271864779268114, 94.236103617840044, 94.2002920514294, 94.164461390948517, 94.128643323492895, 94.092869871216067, 94.057173349596383, 94.021586325147737, 93.986141572629734, 93.950872031810007, 93.915810763835239, 93.880990907267119, 93.846445633838272, 93.812208103986933, 93.778311422225713, 93.744788592404078, 93.711672472921222, 93.678995731947353, 93.646790802712587, 93.615089838920795, 93.583924670346676, 93.553326758674672, 93.523327153636956, 93.493956449508744, 93.465244742017447, 93.437221585723606, 93.409915951928483, 93.383356187166413, 93.357569972334332, 93.332584282515739, 93.308425347550894, 93.285118613407022, 93.262688704401157, 93.241159386324739, 93.220553530523034, 93.200893078974616, 93.182199010422607, 93.164491307600727, 93.147788925602299, 93.132109761433966, 93.117470624798386, 93.10388721014516, 93.091374070032032, 93.079944589831641, 93.069610963822555, 93.060384172697738, 93.052273962524495, 93.045288825186887, 93.039435980339434, 93.034721358901265, 93.031149588115127, 93.028723978195927, 93.027446510590238, 93.027317827867435, 93.028337225259747, 93.030502643867592, 93.033810665544166, 93.038256509470742, 93.043834030432905, 93.050535718805165, 93.058352702248925, 93.067274749128913, 93.077290273646909, 93.088386342693909, 93.100548684417049, 93.113761698495708, 93.128008468119987, 93.143270773661939, 93.159529108028181, 93.176762693679734, 93.19494950130364, 93.214066270118764, 93.234088529794803, 93.254990623963593, 93.276745735297823, 93.299325912131948, 93.322702096596501, 93.346844154235512, 93.371720905077026, 93.397300156120423, 93.423548735206964, 93.450432526234948, 93.47791650568081, 93.505964780385412, 93.534540626562773, 93.5636065299867, 93.593124227310824, 93.62305474847328, 93.653358460138492, 93.683995110125721, 93.71492387277253, 93.746103395181123, 93.777491844293124, 93.80904695473815, 93.840726077399808, 93.872486228641677, 93.904284140136156, 93.936076309235773, 93.967819049828435, 93.99946854361518, 94.03098089174965, 94.062312166777673, 94.093418464813624, 94.124255957892274, 94.154780946431771, 94.18494991174488, 94.214719568534633, 94.244046917310797, 94.272889296663337, 94.301204435328259, 94.32895050398389, 94.356086166711904, 94.382570632061274, 94.408363703651418, 94.433425830253, 94.457718155282365, 94.481202565650293, 94.503841739902981, 94.525599195594864, 94.54643933583462, 94.566327494945895, 94.585229983183936, 94.603114130453108, 94.619948328969002, 94.635702074810553, 94.650346008309455, 94.66385195322529, 94.676192954654709, 94.687343315626904, 94.697278632336733, 94.705975827970349, 94.7134131850774, 94.719570376448473, 94.724428494455822, 94.727970078818075, 94.730179142751325, 94.731041197470859, 94.730543275010007, 94.728673949323877, 94.725423355648033, 94.720783208084811, 94.714746815390626, 94.707309094941735, 94.698466584855382, 94.688217454248914, 94.676561511617365, 94.663500211316943, 94.64903665813975, 94.633175609970436, 94.615923478515967, 94.597288328103289, 94.577279872540501, 94.555909470040845, 94.533190116210392, 94.509136435102619, 94.483764668346197, 94.457092662352878, 94.429139853616775, 94.399927252117678, 94.36947742284211, 94.337814465441568, 94.304963992044549, 94.270953103246725, 94.235810362301677, 94.199565767538573, 94.16225072303574, 94.123898007579456, 94.084541741941734, 94.04421735451092, 94.002961545312019, 93.960812248455795, 93.917808593055739, 93.873990862658374, 93.829400453228018, 93.784079829734281, 93.738072481389764, 93.691422875587193, 93.644176410588045, 93.596379367014521, 93.548078858200725, 93.499322779457529, 93.450159756309318, 93.400639091760837, 93.350810712654351, 93.300725115177897, 93.250433309587081, 93.19998676420353, 93.149437348754788, 93.098837277119728, 93.048239049546808, 92.997695394411068, 92.947259209577652, 92.89698350343933, 92.846921335697928, 92.797125757956834, 92.747649754195393, 92.698546181194331, 92.649867708980864, 92.601666761366531, 92.553995456643307, 92.506905548511725, 92.4604483673087, 92.414674761604772, 92.369635040240794, 92.325378914871962, 92.281955443087412, 92.239412972174804, 92.197799083594447, 92.157160538231764, 92.117543222491889, 92.078992095302638, 92.04155113608843, 92.005263293778341, 91.970170436910678, 91.936313304892536, 91.903731460476365, 91.87246324350825, 91.842545726007231, 91.814014668628701, 91.78690447856583, 91.761248168941805, 91.737077319741232, 91.714422040330973, 91.693310933616047, 91.673771061875215, 91.655827914319971, 91.639505376417375