93.115718509707278, 93.240289813113478, 93.363250401975208, 93.484495957665445, 93.603924037836435, 93.721434169423205, 93.836927939777411, 93.950309085843458, 94.061483581291384, 94.17035972152226, 94.276848206463839, 94.380862221076328, 94.482317513491466, 94.581132470708425, 94.677228191773466, 94.770528558373442, 94.860960302773819, 94.948453073036603, 95.032939495454258, 95.114355234139722, 95.192639047714977, 95.267732843043405, 95.339581725953323, 95.408134048905183, 95.473341455555214, 95.535158922172741, 95.593544795871921, 95.648460829620575, 95.699872213992549, 95.747747605633407, 95.792059152412051, 95.832782515234243, 95.869896886497855, 95.903385005171486, 95.933233168483326, 95.959431240209142, 95.981972655551672, 96.000854422607901, 96.016077120423319, 96.027644893635596, 96.035565443713963, 96.03985001680357, 96.040513388187748, 96.037573843383711, 96.031053155891414, 96.020976561618625, 96.007372730006949, 95.990273731889417, 95.969715004111194, 95.945735310949061, 95.918376702368491, 95.887684469160774, 95.853707095004083, 95.816496205497444, 95.776106514217531, 95.732595765853944, 95.686024676477274, 95.636456871001798, 95.583958817903905, 95.528599761261631, 95.470451650183321, 95.409589065695002, 95.346089145159567, 95.280031504303594, 95.211498156927561, 95.140573432381601, 95.067343890886534, 94.991898236785985, 94.914327229814219, 94.834723594469082, 94.753181927578993, 94.669798604155886, 94.584671681627128, 94.49790080254229, 94.409587095849275, 94.319833076839245, 94.228742545858324, 94.136420485886404, 94.042972959084295, 93.948507002411446, 93.853130522416919, 93.756952189308407, 93.660081330401923, 93.562627823059159, 93.464701987216614, 93.366414477612651, 93.2678761758185, 93.169198082179719, 93.070491207772974, 92.97186646648619, 92.873434567325759, 92.77530590705787, 92.677590463288567, 92.580397688086634, 92.483836402254354, 92.388014690348484, 92.293039796553998, 92.199018021512288, 92.106054620204489, 92.014253700987695, 91.923718125885117, 91.834549412223026, 91.746847635713038, 91.660711335071539, 91.57623741826896, 91.493521070499412, 91.412655663958645, 91.333732669517786, 91.256841570376864, 91.182069777780924, 91.109502548879206, 91.039222906805549, 90.971311563056432, 90.905846842238347, 90.842904609258369, 90.782558199024137, 90.724878348719727, 90.66993313272144, 90.617787900213315, 90.568505215559924, 90.522144801492189, 90.478763485157344, 90.438415147082765, 90.40115067309938, 90.367017909267858, 90.336061619847371, 90.30832344834424, 90.283841881673197, 90.262652217463256, 90.244786534534128, 90.230273666567925, 90.21913917899731, 90.211405349126437, 90.207091149500897, 90.206212234535798, 90.208780930410512, 90.214806228234877, 90.224293780486988, 90.237245900721376, 90.25366156654087, 90.273536425824815, 90.296862806200039, 90.323629727740666, 90.353822918876773, 90.387424835491927, 90.424414683182292, 90.464768442651646, 90.508458898209227, 90.555455669336979, 90.605725245288525, 90.659231022679748, 90.715933346027299, 90.775789551188737, 90.83875401165588, 90.904778187648787, 90.973810677955527, 91.045797274461563, 91.120681019307156, 91.198402264611701, 91.278898734699482, 91.362105590758645, 91.447955497865081, 91.536378694298293, 91.62730306307472, 91.720654205623347, 91.816355517523817, 91.914328266228054, 92.01449167068229, 92.11676298276609, 92.221057570462364, 92.327289002671804, 92.435369135582079, 92.545208200502969, 92.656714893074792, 92.769796463758155, 92.884358809511426, 93.00030656656098, 93.117543204168101, 93.235971119297446, 93.355491732088183, 93.476005582031561, 93.597412424755561, 93.719611329318639, 93.84250077591291, 93.965978753878758, 94.089942859930147, 94.214290396492416, 94.338918470053102, 94.463724089426989, 94.58860426383643, 94.713456100709152, 94.838176903095857, 94.962664266610275, 95.086816175795732, 95.210531099822362, 95.333708087420987, 95.456246860959041, 95.57804790956763, 95.699012581227052, 95.81904317372134, 95.938043024373954, 96.055916598476188, 96.172569576323866, 96.287908938778514, 96.401843051269609, 96.514281746159156, 96.625136403389249, 96.734320029336445, 96.84174733379858, 96.947334805041294, 97.05100078283553, 97.152665529416225, 97.25225129829812, 97.349682400885683, 97.444885270815135, 97.537788525972374, 97.62832302812879, 97.716421940145082, 97.802020780689617, 97.885057476425999, 97.965472411624162, 98.043208475152639, 98.11821110481408, 98.190428328985348, 98.259810805531842, 98.326311857962551, 98.389887508800285, 98.450496510141875, 98.508100371386305, 98.562663384112227, 98.614152644090751, 98.662538070418535, 98.707792421763543, 98.749891309716148, 98.788813209241965, 98.824539466236928, 98.857054302185944, 98.886344815931281, 98.912400982559973, 98.935215649420016, 98.954784529281881, 98.971106190661374, 98.984182045324616, 98.994016332998626, 99.000616103313519, 99.00399119500436, 99.004154212405865, 99.001120499272687, 98.994908109963802, 98.985537778029382, 98.973032882243658, 98.957419410127343, 98.938725919008476, 98.916983494669381, 98.892225707634211, 98.864488567149024, 98.833810472913228, 98.800232164619274, 98.763796669363174, 98.72454924698755, 98.682537333422573, 98.63781048209141, 98.590420303449321, 98.540420402725431, 98.487866315940565, 98.432815444273842, 98.375326986852571, 98.315461872043457, 98.253282687320478, 98.188853607790676, 98.122240323456154, 98.053509965294225, 97.982731030237602, 97.909973305137413, 97.835307789792708, 97.758806619131164, 97.680542984625106, 97.600591055029412, 97.519025896526372, 97.435923392363364, 97.35136016207079, 97.265413480345813, 97.17816119568883, 97.089681648878681, 97.000053591373458, 96.909356103722843, 96.817668514076999, 96.725070316878188, 96.631641091818977, 96.537460423152055, 96.44260781943423, 96.347162633787789, 96.251203984760409, 96.154810677865086, 96.058061127879469, 95.961033281982864, 95.863804543808726, 95.766451698489035, 95.669050838764164, 95.571677292233147, 95.474405549813994, 95.377309195486916, 95.2804608373864, 95.183932040310339, 95.087793259711162, 94.992113777231552, 94.896961637846275, 94.802403588669435, 94.708505019483979, 94.615329905048924, 94.522940749237264, 94.431398531054626, 94.340762652588268, 94.2510908889315, 94.162439340128245, 94.074862385179117, 93.988412638147352, 93.903140906402612, 93.819096151035524, 93.736325449475146, 93.654873960339529, 93.574784890543526, 93.496099464690943, 93.418856896769668, 93.343094364171137, 93.268846984048281, 93.196147792026935, 93.125027723281235, 93.055515595981561, 92.98763809712041, 92.921419770720092, 92.856883008422002, 92.794048042455771, 92.732932940983829, 92.673553605813694, 92.615923772468335, 92.560055012603087, 92.505956738752374, 92.453636211391341, 92.403098548290345, 92.354346736141864, 92.307381644434074, 92.262202041544612, 92.218804613025085, 92.177183982045193, 92.13733273196155, 92.099241430977116, 92.062898658850898, 92.028291035619816, 91.995403252288668, 91.964218103445546, 91.93471652175559, 91.906877614285605, 91.880678700608996, 91.856095352641049, 91.833101436149278, 91.81166915388593, 91.791769090285342, 91.773370257668148, 91.756440143893755, 91.740944761400371, 91.726848697570702, 91.714115166360088, 91.702706061123436, 91.692582008575741, 91.683702423820137, 91.676025566376069, 91.66950859714072, 91.664107636214936, 91.659777821523946, 91.656473368164015, 91.654147628405042, 91.65275315227764, 91.652241748675053, 91.652564546897807, 91.65367205857099, 91.655514239862086, 91.658040553927933, 91.661200033520927, 91.66494134368223, 91.669212844451494, 91.673962653523077, 91.679138708778822, 91.684688830627039, 91.690560784079878, 91.696702340499868, 91.703061338948672, 91.709585747070804, 91.716223721446511, 91.722923667348951, 91.729634297841301, 91.736304692151151, 91.742884353260493, 91.74932326464976, 91.755571946138062, 91.761581508760301, 91.767303708624709, 91.772690999696522, 91.777696585453157, 91.782274469358953, 91.786379504108965, 91.789967439593298, 91.792994969534021, 91.795419776750606, 91.79720057700807, 91.798297161408641, 91.798670437285153, 91.798282467558991, 91.797096508526124, 91.795077046037846, 91.792189830043711, 91.788401907466223, 91.783681653381123, 91.777998800474748, 91.771324466757463, 91.763631181509794, 91.754892909442262, 91.745085073052195, 91.73418457316167, 91.722169807624013, 91.70902068818819, 91.694718655511807, 91.679246692317818, 91.66258933468859, 91.644732681497743, 91.625664401977318, 91.605373741424941, 91.583851525053731, 91.561090159992347, 91.537083635443167, 91.511827521010559, 91.485318963210489, 91.457556680177831, 91.428540954587262, 91.39827362480689, 91.366758074305608, 91.333999219337315, 91.300003494925519, 91.264778839175946, 91.228334675945121, 91.190681895894656, 91.151832835963631, 91.111801257292328, 91.070602321632123, 91.028252566278837, 90.984769877567715, 90.940173462969113, 90.894483821826881, 90.847722714781469, 90.799913131922168, 90.751079259712697, 90.701246446737386, 90.650441168314742, 90.598690990027677, 90.546024530218901, 90.492471421502984, 90.438062271346098, 90.382828621765341, 90.326802908201032, 90.270018417615958, 90.212509245874728, 90.154310254459205, 90.095457026575133, 90.035985822704944, 89.97593353566397, 89.915337645215729, 89.854236172303104, 89.792667632951833, 89.730670991904191, 89.66828561603819, 89.605551227630471, 89.54250785751826, 89.479195798218512, 89.415655557058571, 89.351927809375155, 89.288053351838201, 89.224073055951862, 89.160027821790138, 89.095958532019097, 89.031906006259774, 88.967910955844218, 88.904013939016167, 88.840255316627719, 88.776675208382343, 88.713313449671944, 88.650209549058459, 88.587402646444929, 88.52493147198301, 88.462834305762271, 88.401148938323772, 88.339912632041191, 88.279162083409958, 88.218933386285485, 88.159261996106608, 88.100182695144042, 88.04172955880631, 87.983935923040235, 87.926834352855508, 87.870456612007388, 87.814833633863458, 87.759995493485434, 87.705971380949336, 87.65278957593064, 87.600477423575413, 87.549061311679509, 87.498566649194274, 87.449017846077425, 87.400438294502919, 87.352850351446577, 87.306275322656404, 87.260733448020474, 87.216243888340571, 87.17282471351696, 87.130492892151096, 87.089264282568536, 87.049153625263784, 87.010174536766357, 86.972339504926623, 86.935659885616886, 86.900145900842503, 86.865806638255137, 86.83265005206033, 86.800682965306422, 86.769911073544648, 86.740338949844855, 86.711970051151852, 86.684806725963838, 86.658850223316151, 86.634100703047366, 86.610557247327549, 86.588217873424711, 86.567079547683903, 86.547138200693666, 86.528388743611828, 86.510825085620681, 86.494440152483278, 86.479225906167315, 86.465173365505024, 86.452272627855081, 86.440512891731231, 86.429882480362082, 86.420368866144756, 86.41195869595434, 86.404637817271123, 86.398391305084573, 86.393203489534727, 86.389057984249632, 86.385937715336127, 86.383824950982671, 86.382701331629903, 86.382547900666793, 86.383345135606632, 86.38507297970007, 86.38771087393927, 86.391237789408933, 86.395632259938452, 86.400872415009829, 86.40693601287613, 86.413800473844816, 86.421442913680181, 86.429840177079797, 86.438968871179242, 86.448805399040566, 86.459325993079204, 86.470506748384381, 86.482323655889957, 86.494752635350849, 86.507769568081969, 86.521350329417345, 86.535470820846953, 86.55010700178903, 86.565234920958318, 86.580830747289113, 86.596870800373722, 86.613331580378556, 86.630189797399225, 86.64742240021927, 86.665006604434936, 86.682919919912905, 86.701140177546534, 86.719645555278163, 86.738414603356063, 86.757426268795527, 86.7766599190156, 86.796095364623, 86.815712881317054, 86.835493230890449, 86.85541768130139, 86.875468025795257, 86.895626601054573, 86.915876304356757, 86.936200609722249, 86.956583583035595, 86.977009896124684, 86.997464839783248, 87.017934335725386, 87.03840494746008, 87.058863890077561, 87.079299038938188, 87.099698937259348, 87.120052802593477, 87.140350532196081, 87.160582707280824, 87.1807405961613, 87.200816156282116, 87.220802035141233, 87.24069157010824, 87.260478787144535, 87.280158398432803, 87.299725798925365, 87.319177061820525, 87.338508932980076, 87.357718824300946, 87.37680480605475, 87.395765598213032, 87.414600560774218, 87.433309683112242, 87.451893572366018, 87.470353440891756, 87.488691092801005, 87.506908909607574, 87.525009835009485, 87.542997358830917, 87.560875500152676, 87.578648789659169, 87.596322251231015, 87.613901382814703, 87.631392136599089, 87.648800898533295, 87.66613446721739, 87.683400032199941, 87.700605151719387, 87.717757729921104, 87.734865993590191, 87.75193846843365, 87.768983954951494, 87.786011503933608, 87.803030391621064, 87.820050094570703, 87.837080264262312, 87.854130701487421, 87.871211330560357, 87.888332173390395, 87.905503323456472, 87.922734919723311, 87.940037120540495, 87.957420077564009, 87.974893909740643, 87.992468677395848, 88.010154356463858, 88.027960812901568, 88.045897777323717, 88.063974819899954, 88.082201325552205, 88.100586469489784, 88.119139193121697, 88.137868180382014, 88.15678183450602, 88.175888255292676, 88.195195216889203, 88.21471014613256, 88.234440101481042, 88.254391752570385, 88.274571360425455, 88.29498475835949, 88.315637333591681, 88.33653400961127, 88.357679229318208, 88.379076938966406, 88.400730572936794, 88.422643039364189, 88.444816706643792, 88.467253390837399, 88.489954344003593, 88.512920243470305, 88.536151182069261, 88.559646659350605, 88.583405573792533, 88.607426216022773, 88.631706263063492, 88.656242773613826, 88.68103218437885, 88.706070307455619, 88.7313523287837, 88.75687280766644, 88.782625677368202, 88.808604246790622, 88.834801203230384, 88.861208616218534, 88.887817942440236, 88.914620031733165, 88.941605134159587, 88.968762908146985, 88.996082429691086, 89.023552202610972, 89.051160169848487, 89.078893725798565, 89.106739729659381, 89.134684519786845, 89.162713929038162, 89.190813301087786, 89.218967507696121, 89.247160966913015, 89.275377662193236, 89.30360116240189, 89.331814642687149, 89.360000906193278, 89.388142406590077, 89.416221271389077, 89.44421932602009, 89.472118118636331, 89.499898945619236, 89.527542877749994, 89.555030787015042, 89.58234337401241, 89.60946119592333, 89.636364695014407, 89.663034227632664, 89.689450093657641, 89.715592566370972, 89.741441922706514, 89.766978473839529, 89.792182596077154, 89.817034762007381, 89.84151557186749, 89.865605785088619, 89.889286351975983, 89.912538445481616, 89.935343493026849, 89.957683208332526, 89.979539623213071, 90.000895119291386, 90.021732459591703, 90.04203481996619, 90.061785820313176, 90.080969555542183, 90.099570626244343, 90.117574169023996, 90.134965886448697, 90.151732076576707, 90.167859662017662, 90.183336218486744, 90.198150002809442, 90.212289980337658, 90.225745851735695, 90.23850807909686, 90.250567911352775, 90.261917408935318, 90.272549467654912, 90.282457841758699, 90.291637166131437, 90.300082977605939, 90.30779173534691, 90.314760840277401, 90.320988653514178, 90.326474513782017, 90.331218753776355, 90.335222715446506, 90.338488764171245, 90.341020301800839, 90.342821778540383, 90.343898703650638, 90.344257654944627, 90.343906287057976, 90.342853338474143, 90.341108637286183, 90.338683105677845, 90.335588763109385, 90.331838728193475, 90.327447219249947, 90.322429553527599, 90.316802145084154, 90.310582501317327, 90.303789218139897, 90.296441973795012, 90.288561521308623, 90.280169679577952, 90.271289323095729, 90.261944370312975, 90.252159770643317, 90.241961490114306, 90.231376495672492, 90.220432738150492, 90.209159133906724, 90.197585545148726, 90.185742758953523, 90.173662465000959, 90.161377232033672, 90.148920483065751, 90.136326469355666, 90.123630243167085, 90.110867629338955, 90.09807519568966, 90.085290222279866, 90.072550669562006, 90.059895145444074, 90.047362871297651, 90.034993646941359, 90.02282781463245, 90.010906222099081, 89.999270184650214, 89.987961446397165, 89.977022140625834, 89.966494749356954, 89.956422062134962, 89.946847134085203, 89.937813243281838, 89.929363847468622, 89.921542540176389, 89.914393006281742, 89.907958977051535, 89.902284184720415, 89.89741231664685, 89.893386969096227, 89.890251600698051, 89.88804948562705, 89.88682366655641, 89.886616907432668, 89.887471646124126, 89.88942994699012, 89.892533453425102, 89.896823340425939, 89.902340267235147, 89.909124330110771, 89.917215015274323, 89.926651152088056, 89.937470866513308, 89.94971153490097, 89.963409738164756, 89.978601216389123, 89.995320823921716, 90.013602485000646, 90.03347914996759, 90.054982752114341, 90.078144165214113, 90.102993161783715, 90.129558372126965, 90.157867244204368, 90.18794600437657, 90.219819619068033, 90.253511757394406, 90.289044754798908, 90.326439577740388, 90.365715789475232, 90.406891516975122, 90.449983419019375, 90.495006655502493, 90.541974857993807, 90.590900101586683, 90.641792878071982, 90.694662070470827, 90.749514928959002, 90.80635704821573, 90.865192346224404, 90.926023044557908, 90.988849650171957, 91.053670938735323, 91.120483939519517, 91.189283921871208, 91.260064383288608, 91.332817039121906, 91.407531813914503, 91.484196834402795, 91.562798424188301, 91.643321100095108, 91.725747570224527, 91.810058733716261, 91.896233682223169, 91.984249703107423, 92.074082284360315, 92.165705121250497, 92.259090124699398, 92.354207431384864, 92.451025415568111, 92.549510702642337, 92.649628184393819, 92.751341035969801, 92.854610734541993, 92.959397079654948, 93.06565821524606, 93.173350653321577, 93.282429299272934, 93.392847478813991, 93.504556966520312, 93.617508015947493, 93.731649391306277, 93.846928400669157, 93.96329093068104, 94.080681482747679, 94.199043210670197, 94.318317959695989, 94.438446306952756, 94.559367603231152, 94.681020016081618, 94.803340574187246, 94.926265212975352, 95.049728821427678, 95.173665290048689, 95.298007559949596, 95.422687673005328, 95.547636823039511, 95.672785407992535, 95.798063083025781, 95.923398814514954, 96.048720934883306, 96.173957198225921, 96.299034836675276, 96.423880617455723, 96.548420900576403, 96.672581697109138, 96.796288727999269, 96.91946748335414, 97.042043282156612, 97.16394133234796, 97.285086791224558, 97.405404826094085, 97.52482067513418, 97.643259708397977, 97.760647488910152, 97.876909833796731, 97.991972875392463, 98.105763122268741, 98.2182075201261, 98.329233512493474, 98.438769101179901, 98.546742906420448, 98.653084226661619, 98.757723097930381, 98.860590352731265, 98.961617678417284, 99.06073767497945, 99.157883912201711, 99.252990986127998, 99.345994574788435, 99.436831493132885, 99.525439747120529, 99.61175858691557, 99.69572855913863, 99.777291558125754, 99.856390876146676, 99.932971252536831, 100.00697892169522, 100.07836165990557, 100.14706883093567, 100.21305143037344, 100.27626212865783, 100.33665531276478, 100.39418712650973, 100.44881550942915, 100.50050023420438, 100.54920294259429, 100.59488717984273, 100.63751842752886, 100.67706413483035, 100.71349374817042, 100.74677873922164, 100.77689263124041, 100.80381102370816, 100.82751161525644, 100.84797422485539, 100.86518081124586, 100.87911549059764, 100.88976455237788, 100.89711647341495, 100.90116193014642, 100.90189380903807, 100.89930721516728, 100.89339947896065, 100.88417016108302, 100.87162105547078, 100.85575619051006, 100.83658182835637, 100.81410646240019, 100.78834081287775, 100.75929782063427, 100.72699263904531, 100.69144262410271, 100.65266732267753, 100.61068845896861, 100.5655299191517, 100.51721773424278, 100.46578006119206, 100.4112471622268, 100.35365138246215, 100.29302712580126, 100.22941082914667, 100.16284093494794, 100.09335786211028, 100.02100397529198, 99.945823552618023, 99.867862751840903, 99.787169574979302, 99.703793831466996, 99.617787099846339, 99.529202688040925, 99.43809559224448, 99.344522454462506, 99.248541518746734, 99.150212586160478, 99.049596968517633, 98.946757440935286, 98.8417581932448, 98.734664780303419, 98.625544071252236, 98.514464197765534, 98.401494501338291, 98.286705479658423, 98.170168732112316, 98.051956904471623, 97.932143632810124, 97.810803486701673, 97.688011911747751, 97.563845171486719, 97.438380288734763, 97.311694986410913, 97.183867627897044, 97.054977156986041, 96.925103037468858, 96.794325192414746, 96.662723943195374, 96.530379948307115, 96.397374142043091, 96.263787673067753, 96.129701842947284, 95.995198044686973, 95.860357701329676, 95.725262204664759, 95.589992854102206, 95.454630795761219, 95.319256961824919, 95.183952010212934, 95.048796264619781, 94.913869654971251, 94.779251658346311, 94.645021240413627, 94.511256797430818, 94.378036098853045, 94.245436230598344, 94.113533539015336, 93.982403575597303, 93.852121042488179, 93.722759738823143, 93.594392507945727, 93.467091185543921, 93.340926548744875, 93.215968266208378, 93.092284849256515, 92.96994360407821, 92.849010585043715, 92.729550549165083, 92.611626911736096, 92.495301703184197, 92.380635527166973, 92.267687519942925, 92.156515311045027, 92.047174985286475, 91.939721046124106, 91.834206380404481, 91.730682224517764, 91.629198131980942, 91.529801942472162, 91.4325397523357, 91.33745588657672, 91.244592872362389, 91.153991414044881, 91.065690369721935, 90.979726729346041, 90.896135594395318, 90.814950159115739, 90.736201693343034, 90.659919526912248, 90.586131035660216, 90.5148616290261, 90.446134739253083, 90.379971812191457, 90.316392299706592, 90.255413653686887, 90.197051321652253, 90.141318743958166, 90.088227352590081, 90.037786571541972, 89.990003818771328, 89.944884509721163, 89.90243206239964, 89.86264790400368, 89.825531479075806, 89.791080259179324, 89.759289754075454, 89.730153524388115, 89.703663195735871, 89.679808474315095, 89.658577163912057, 89.639955184324137, 89.623926591167759, 89.610473597050046, 89.599576594078968, 89.591214177689153, 89.585363171754395, 89.581998654961978, 89.581093988420008, 89.582620844469091, 89.586549236668446, 89.592847550926678, 89.601482577745415, 89.61241954554454, 89.625622155035146, 89.641052614608597, 89.658671676706177, 89.678438675136334, 89.700311563302904, 89.724246953309745, 89.750200155905489, 89.778125221231264, 89.80797498033543, 89.839701087416827, 89.873254062759443, 89.908583336320646, 89.945637291933792, 89.98436331208778, 90.02470782324356, 90.066616341649635, 90.110033519616891, 90.154903192213737, 90.201168424341915, 90.248771558154445, 90.297654260775658, 90.347757572283996, 90.39902195391916, 90.451387336473246, 90.50479316882813, 90.559178466599079, 90.614481860846823, 90.67064164681932, 90.727595832684813, 90.785282188218403, 90.843638293405007, 90.902601586920554, 90.962109414455668, 91.022099076843787, 91.082507877959685, 91.14327317235076, 91.204332412567396, 91.265623196156938, 91.327083312287883, 91.388650787969624, 91.450263933836169, 91.511861389459881, 91.573382168165139, 91.634765701308837, 91.695951881999122, 91.756881108221009, 91.817494325340618, 91.877733067959369, 91.937539501089958, 91.996856460628152, 92.0556274930928, 92.113796894609877, 92.171309749115125, 92.228111965751438, 92.284150315438239, 92.339372466590419, 92.393727019964885, 92.447163542615016, 92.499632600932443, 92.551085792757647, 92.601475778540845, 92.650756311536782, 92.698882267015875, 92.745809670476888, 92.791495724846982, 92.835898836654451, 92.878978641161012, 92.920696026443821, 92.961013156412506, 92.999893492754893, 93.037301815798727, 93.073204244282678, 93.107568254028862, 93.140362695509126, 93.17155781030074, 93.201125246424226, 93.229038072562048, 93.255270791151446, 93.279799350352036, 93.302601154883916, 93.323655075737605, 93.342941458753828, 93.360442132075221, 93.376140412471017, 93.390021110536935, 93.402070534773927, 93.412276494549275, 93.420628301944191, 93.427116772494983, 93.4317342248317, 93.434474479223127, 93.435332855034403, 93.434306167106158, 93.431392721063844, 93.426592307566906, 93.419906195508631, 93.411337124176413, 93.400889294385465, 93.388568358596785, 93.374381410033465, 93.358336970807343, 93.340444979070995, 93.320716775209334, 93.299165087085285, 93.275804014355785, 93.25064901187406, 93.223716872194132, 93.195025707195398, 93.164594928844323, 93.132445229111468, 93.098598559061742, 93.063078107137301, 93.025908276651791, 92.987114662516078, 92.946724027214756, 92.904764276053825, 92.861264431700917, 92.816254608038378, 92.769765983350098, 92.721830772864593, 92.672482200676001, 92.621754471063639, 92.569682739235205, 92.51630308151303, 92.46165246498866, 92.405768716667481, 92.348690492127105, 92.290457243711714, 92.231109188288031, 92.170687274583983, 92.109233150135921, 92.046789127866816, 91.983398152320163, 91.919103765573652, 91.853950072855952, 91.787981707891987, 91.721243797999634, 91.65378192896334, 91.585642109707962, 91.516870736797486, 91.447514558783169, 91.377620640425036, 91.307236326810553, 91.236409207395965, 91.165187079993274, 91.09361791472675, 91.021749817984528, 90.949630996387484, 90.877309720799971, 90.804834290406276, 90.732252996876369, 90.659614088643622, 90.58696573531877, 90.514355992263162, 90.441832765343577, 90.36944377589235, 90.297236525894803, 90.225258263426852, 90.153555948364954, 90.08217621839016, 90.011165355308876, 89.940569251710969, 89.870433377987354, 89.800802749727808, 89.731721895520067, 89.663234825170861, 89.595384998369013, 89.52821529381103, 89.461767978808339, 89.396084679396324, 89.331206350964294, 89.267173249424488, 89.204024902939736, 89.141800084227086, 89.080536783455685, 89.020272181756567, 88.961042625360975, 88.902883600385167, 88.845829708276185, 88.789914641937074, 88.735171162544916, 88.681631077079004, 88.629325216572298, 88.578283415101978, 88.528534489532035, 88.480106220022819, 88.433025331319044, 88.387317474831065, 88.343007211520018, 88.300117995598839, 88.258672159062769, 88.218690897056405, 88.180194254091631, 88.143201111123815, 88.107729173496736, 88.073794959765578, 88.04141379140529, 88.010599783413781, 87.981365835816092, 87.953723626077348, 87.927683602430378, 87.90325497812438, 87.880445726598978, 87.859262577590187, 87.839711014170206, 87.821795270726852, 87.805518331884144, 87.790881932367697, 87.777886557815847, 87.766531446538735, 87.756814592225211, 87.748732747598893, 87.742281429021745, 87.737454922044648, 87.734246287903673, 87.732647370959029, 87.732648807074398, 87.734240032932718, 87.737409296284881, 87.74214366712576, 87.74842904979279, 87.756250195981096, 87.765590718667823, 87.776433106939209, 87.788758741712016, 87.802547912340643, 87.817779834101088, 87.834432666541488, 87.852483532688581, 87.871908539100119, 87.89268279674954, 87.914780442732038, 87.938174662778181, 87.962837714561545, 87.988740951785928, 88.015854849037567, 88.044149027385657, 88.073592280716497, 88.10415260278279, 88.135797214951879, 88.168492594633875, 88.202204504371622, 88.23689802157277, 88.272537568864365, 88.309086945048861, 88.346509356641519, 88.38476744996639, 88.423823343789536, 88.46363866246601, 88.504174569578041, 88.545391802040001, 88.587250704646095, 88.629711265035453, 88.672733149050131, 88.716275736459423, 88.76029815702374, 88.804759326873224, 88.849617985171236, 88.894832731037155, 88.940362060699513, 88.986164404850911, 89.032198166176613, 89.078421757026618, 89.124793637202728, 89.171272351829899, 89.217816569282277, 89.264385119133237, 89.31093703009897, 89.357431567943863, 89.403828273318055, 89.450086999494431, 89.496167949973824, 89.542031715927394, 89.587639313443532, 89.63295222054785, 89.677932413964612, 89.722542405586225, 89.766745278620476, 89.810504723382195, 89.853785072697576, 89.896551336889459, 89.938769238311366, 89.980405245398472, 90.021426606203988, 90.061801381388719, 90.101498476634319, 90.140487674446121, 90.178739665317877, 90.216226078225006, 90.25291951041828, 90.288793556486013, 90.323822836656774, 90.357983024312247, 90.391250872681866, 90.423604240690764, 90.455022117933311, 90.485484648744375, 90.514973155341892, 90.543470160014152, 90.570959406326551, 90.597425879321392, 90.622855824688656, 90.647236766881107, 90.670557526153274, 90.692808234499907, 90.713980350473918, 90.734066672861559, 90.753061353196671, 90.770959907092461, 90.787759224375364, 90.803457578000561, 90.818054631736047, 90.831551446596151, 90.843950486012773, 90.855255619729704, 90.86547212640707, 90.874606694925035, 90.882667424375811, 90.88966382273513, 90.89560680420432, 90.900508685215712, 90.904383179095987, 90.907245389381742, 90.909111801784462, 90.910000274800637, 90.909930028967906, 90.908921634764923, 90.906996999157258, 90.904179350791267, 90.90049322383905, 90.895964440499625, 90.890620092162507, 90.884488519240179, 90.877599289678585, 90.869983176155657, 90.86167213197804, 90.852699265689623, 90.843098814403788, 90.832906115876327, 90.822157579333833, 90.810890655075127, 90.799143802864947, 90.786956459139859, 90.774369003047326, 90.761422721340665, 90.74815977215323, 90.734623147677695, 90.720856635776272, 90.706904780548328, 90.69281284188564, 90.678626754043862, 90.664393083262169, 90.650158984461285, 90.635972157056145, 90.621880799914521, 90.607933565498627, 90.59417951322618, 90.580668062087426, 90.567448942557633, 90.554572147844269, 90.542087884508646, 90.530046522504151, 90.518498544673122, 90.50749449574522, 90.497084930881158, 90.487320363806887, 90.47825121458348, 90.4699277570584, 90.462400066046314, 90.45571796428473, 90.44993096921533, 90.44508823963703, 90.441238522281779, 90.438430098361408, 90.436710730136824, 90.436127607558888, 90.436727295032398, 90.438555678353964, 90.44165791187568, 90.446078365945027, 90.451860574673859, 90.459047184087552, 90.467679900706415, 90.477799440611079, 90.489445479043795, 90.502656600597447, 90.517470250043431, 90.533922683850349, 90.552048922444158, 90.571882703260883, 90.593456434642107, 90.6168011506239, 90.641946466667548, 90.668920536383027, 90.697750009292093, 90.728459989679777, 90.761073996581175, 90.795613924950786, 90.832100008059399, 90.870550781163644, 90.910983046492802, 90.953411839595589, 90.997850397089863, 91.044310125855105, 91.092800573709198, 91.143329401608312, 91.195902357406936, 91.250523251215654, 91.307193932392096, 91.365914268198225, 91.426682124158404, 91.489493346147981, 91.554341744243544, 91.621219078363296, 91.690115045723957, 91.761017270140471, 91.83391129319223, 91.908780567277788, 91.985606450579326, 92.064368203955937, 92.145042989781857, 92.227605872747333, 92.312029822634059, 92.39828571907799, 92.486342358329892, 92.576166462021547, 92.667722687945002, 92.760973642847745, 92.855879897249096, 92.952400002275724, 93.050490508518195, 93.150105986902332, 93.251199051573806, 93.353720384785134, 93.45761876378036, 93.562841089662271, 93.669332418232756, 93.77703599278928, 93.885893278861317, 93.995844000867805, 94.106826180675242, 94.218776178032584, 94.3316287328594, 94.445317009359641, 94.559772641932838, 94.674925782852625, 94.790705151678793, 94.907038086369795, 95.023850596059106, 95.141067415457314, 95.258612060839951, 95.376406887579776, 95.494373149179637, 95.612431057761455, 95.730499845963323, 95.848497830197886, 95.966342475220358, 96.083950459954949, 96.201237744526935, 96.318119638445197, 96.434510869878494, 96.550325655969033, 96.665477774123318, 96.779880634220262, 96.893447351675235, 97.006090821296524, 97.117723791871526, 97.228258941416215, 97.337608953022027, 97.445686591234733, 97.552404778894072, 97.657676674368886, 97.761415749114974, 97.863535865486796, 97.963951354731975, 98.062577095096145, 98.159328589965909, 98.254122045977795, 98.346874451019644, 98.43750365205031, 98.52592843266541, 98.612068590333223, 98.695845013228151, 98.777179756586847, 98.855996118513175, 98.93221871515766, 99.005773555197393, 99.076588113543778, 99.144591404202984, 99.209714052217848, 99.271888364617894, 99.331048400305463, 99.387130038806788, 99.440071047817227, 99.489811149471194, 99.536292085266439, 99.579457679576507, 99.619253901681134, 99.65562892625266, 99.68853319222805, 99.717919460008133, 99.743742866916705, 99.765960980861522, 99.784533852135255, 99.799424063298815, 99.810596777090268, 99.818019782302571, 99.821663537578615, 99.821501213069581, 99.817508729907161, 99.809664797441414, 99.797950948197538, 99.782351570506549, 99.762853938767591, 99.739448241301929, 99.712127605758596, 99.680888122037217, 99.645728862692238, 99.606651900788052, 99.56366232517405, 99.516768253153558, 99.465980840520842, 99.41131428894424, 99.352785850674394, 99.29041583056113, 99.224227585362826, 99.154247520336114, 99.080505083095446, 99.003032754735273, 98.921866038209942, 98.837043443968128, 98.748606472843136, 98.656599596201161, 98.561070233353362, 98.462068726239309, 98.35964831139384, 98.253865089208702, 98.144777990507492, 98.032448740450675, 97.916941819792441, 97.798324423514373, 97.67666641686111, 97.552040288808229, 97.424521102993339, 97.294186446145517, 97.161116374049044, 97.025393355081832, 96.887102211369253, 96.746330057598954, 96.603166237542155, 96.457702258331636, 96.310031722547336, 96.160250258163273, 96.008455446412512, 95.854746747627289, 95.699225425116026, 95.541994467139148, 95.383158507048449, 95.222823741656498, 95.061097847904634, 94.8980898979015, 94.733910272401701, 94.568670572801295, 94.402483531724513, 94.235462922280021, 94.067723466064734, 93.899380739996829, 93.730551082059023, 93.561351496036139, 93.391899555330852, 93.222313305944013, 93.052711168705898, 92.883211840846798, 92.713934196994984, 92.544997189693348, 92.376519749523084, 92.208620684927851, 92.041418581828012, 91.875031703119561, 91.70957788814826, 91.545174452254031, 91.38193808647776, 91.219984757524188, 91.05942960807505, 90.900386857545371, 90.74296970337673, 90.587290222960547, 90.433459276284523, 90.281586409394606, 90.131779758764466, 89.98414595666469, 89.838790037621024, 89.695815346053493, 89.555323445184143, 89.417414027302584, 89.282184825476378, 89.149731526791953, 89.020147687211391, 88.893524648128448, 88.769951454706984, 88.649514776080522, 88.532298827494301, 88.41838529446602, 88.307853259041991, 88.200779128222251, 88.09723656462667, 87.997296419473372, 87.90102666793608, 87.808492346948086, 87.719755495515614, 87.634875097603484, 87.553907027650922, 87.476903998776223, 87.403915513723888, 87.334987818606706, 87.270163859491973, 87.209483241879752, 87.1529821931165, 87.100693527786035, 87.052646616116888, 87.008867355442106, 86.969378144744084, 86.934197862315457, 86.903341846563521, 86.876821879981776, 86.854646176310851, 86.836819370906852, 86.823342514332793, 86.81421306918503, 86.809424910164864, 86.808968327399356, 86.812830033017619, 86.820993170979477, 86.833437330154254, 86.850138560644837, 86.871069393344811, 86.896198862718308, 86.925492532785157, 86.958912526294242, 86.996417557060553, 87.037962965444009, 87.083500756938619, 87.132979643843242, 87.186345089978474, 87.243539358412804, 87.304501562157427, 87.369167717787093, 87.437470801940478, 87.509340810651565, 87.584704821459638, 87.663487058243987, 87.745608958725924, 87.830989244578063, 87.919543994077884, 88.011186717241642, 88.10582843337032, 88.203377750936625, 88.303740949742604, 88.406822065271498, 88.512522975157893, 88.620743487695961, 88.731381432305483, 88.844332751872514, 88.959491596877996, 89.07675042122969, 89.196000079706238, 89.317129926924281, 89.440027917736273, 89.564580708964883, 89.690673762379745, 89.818191448819505, 89.947017153361656, 90.077033381442249, 90.208121865823884, 90.340163674313814, 90.473039318128059, 90.606628860800583, 90.740812027534545, 90.875468314891663, 91.010477100715661, 91.145717754186123, 91.281069745897327, 91.416412757858126, 91.55162679330779, 91.686592286242941, 91.821190210551848, 91.955302188650734, 92.088810599519874, 92.221598686033914, 92.353550661486423, 92.484551815203844, 92.614488617150315, 92.743248821420025, 92.870721568520764, 92.996797486348015, 93.121368789754186, 93.244329378615902, 93.365574934306153, 93.48500301447713, 93.602513146063913, 93.718006916418076, 93.831388062484095, 93.942562557932035, 94.051438698162968, 94.157927183104547, 94.261941197717036, 94.363396490132175, 94.462211447349134, 94.558307168414174, 94.651607535014136, 94.742039279414527, 94.829532049677326, 94.91401847209498, 94.995434210780417, 95.073718024355671, 95.148811819684084, 95.220660702594031, 95.289213025545919, 95.354420432195951, 95.416237898813463, 95.474623772512629, 95.529539806261297, 95.5809511906333, 95.628826582274144, 95.673138129052774, 95.713861491874965, 95.750975863138592, 95.784463981812195, 95.814312145124049, 95.84051021684985, 95.863051632192381, 95.881933399248638, 95.897156097064055, 95.908723870276319, 95.916644420354686, 95.920928993444321, 95.921592364828484, 95.91865282002442, 95.912132132532165, 95.902055538259376, 95.888451706647672, 95.871352708530154, 95.850793980751931, 95.826814287589769, 95.799455679009228, 95.768763445801497, 95.734786071644848, 95.697575182138166, 95.657185490858254, 95.61367474249468, 95.567103653118039, 95.517535847642549, 95.465037794544656, 95.409678737902382, 95.351530626824086, 95.290668042335753, 95.227168121800332, 95.16111048094433, 95.092577133568327, 95.021652409022337, 94.948422867527313, 94.872977213426736, 94.795406206454956, 94.715802571109805, 94.634260904219758, 94.550877580796666, 94.465750658267893, 94.378979779183084, 94.290666072490041, 94.200912053480025, 94.109821522499075, 94.017499462527198, 93.924051935725075, 93.829585979052155, 93.73420949905767, 93.63803116594913, 93.541160307042645, 93.443706799699939, 93.345780963857365, 93.247493454253387, 93.148955152459251, 93.050277058820427, 92.951570184413711, 92.852945443126927, 92.75451354396651, 92.656384883698649, 92.558669439929332, 92.461476664727314, 92.364915378895091, 92.269093666989249, 92.174118773194749, 92.080096998153081, 91.987133596845226, 91.895332677628446