93.27081362
93.4208939
93.49241048
93.34169549
93.24333453
93.10382025
93.02106562
93.08263223
92.93794696
92.78846405
92.78846405
92.78846405
92.78846405
92.78846405
92.78846405
92.19500337
92.34816384
92.56414168
92.88372615
93.11364888
93.19968906
93.30757064
93.50153907
93.7070909
93.91130799
94.10190686
94.16080397
94.20476679
94.22007443
94.12981532
94.01762146
93.96768493
93.94995046
93.8756617
93.84681052
93.93117059
93.94705694
93.90541828
93.89976191
93.8600647
93.88070203
93.963578
93.99484667
93.98056576
93.94929709
93.93473615
93.93473615
93.9640447
94.01902155
94.01743478
94.00847421
94.12141478
94.27122438
94.35896333
94.33114822
94.28830547
94.3959257
94.54368183
94.56533655
94.42738105
94.19216598
93.9968068
93.83582448
93.74953229
93.75423659
93.67191132
93.47443333
93.30556385
93.3432916
93.53717602
93.73789288
93.91281075
94.02583532
94.05757069
94.11254754
94.19823303
94.20486013
94.15128336
94.12524169
94.18096526
94.2465828
94.27430457
94.29521258
94.27747811
94.2565701
94.2565701
94.2565701
94.23230188
94.19916643
94.17741837
94.15949722
94.20775364
94.29222572
94.26291718
94.19636625
94.17163133
94.15212341
94.17853844
94.23603546
94.32900141
94.45603622
94.44278203
94.36633714
94.37968466
94.35541644
94.24854292
94.15053665
94.06027753
94.02350184
94.05523721
94.04636997
94.03152902
94.07530516
94.09023945
94.11945465
94.16024393
94.13382891
94.10069345
94.05533055
94.11086744
94.12412162
94.03423586
93.84732389
93.58085882
93.44384604
93.43761097
93.46213121
93.47883895
93.45191055
93.30014083
93.21767555
93.28308774
93.37523231
93.46745155
93.48470999
93.35973798
93.28490786
93.37231079
93.49758148
93.51257177
93.46213121
93.35235484
93.17122057
93.11889455
93.0649351
92.97288387
92.89892179
92.72265984
92.79043351
93.00731674
93.03507585
93.03507585
93.01265575
93.04418577
93.13131802
93.1253443
93.06248027
92.84011803
92.84011803
92.84011803
92.84011803
92.57744253
92.67725026
92.63145799
92.55133553
92.52769268
92.58456432
92.79828335
93.03688663
93.16082257
93.24707743
93.25561798
93.2147727
93.22933363
93.24333453
93.1741981
93.06717524
93.00134302
92.95403866
92.84939596
92.59808919
92.2850198
92.43941236
92.43941236
92.43941236
92.43941236
92.43941236
92.43941236
92.43941236
92.43941236
92.43941236
92.43941236
93.97216522
94.06083757
94.10545376
94.08771929
93.90276744
93.67613959
93.54532454
93.47325726
93.44723426
93.50866086
93.58767259
93.51547463
93.18761096
92.8640969
92.7060361
92.81863132
93.05452776
93.20850029
93.38692773
93.55749599
93.60839391
93.57944006
93.58662719
93.60774987
93.56828601
93.30583453
92.9318239
92.64129596
92.38180333
92.25156699
92.26069557
92.30296895
92.49153303
92.72223048
92.84648377
93.01669734
93.21562208
93.29814337
93.26912418
93.2127939
93.1461683
93.14976186
93.2537792
93.33070946
93.37778047
93.36767182
93.26169437
93.10827254
92.95483204
92.79965544
92.7116738
92.7730164
92.95741754
93.13311947
93.19713157
93.1752715
93.22065307
93.35909394
93.46937434
93.55360374
93.61164212
93.60468834
93.61956663
93.70894836
93.78320911
93.80407978
93.71494074
93.49090772
93.24925224
93.11685976
93.1633614
93.09888261
92.90127395
92.81828596
92.78846405
92.91589088
93.09266621
93.17230331
93.22297722
93.39890316
93.60520171
93.72938966
93.87680978
93.97608547
94.03115566
94.08921272
94.14428291
94.18077858
94.1784451
94.12757517
94.01164775
93.87382292
93.8360765
93.81479514
93.70212525
93.56524315
93.36993997
93.32910402
93.4384977
93.45500009
93.42712897
93.32617317
93.20837895
93.22593608
93.39642967
93.4869688
93.46213121
93.38167272
93.261125
93.25902486
93.32419437
93.31247096
93.19302464
93.03169697
93.04443778
93.13793577
93.0915928
92.98176977
92.85338154
92.6201826
92.41330535
92.42058582
92.60686308
92.75586063
92.77149496
92.90679963
93.01487722
92.96661146
92.89861378
92.75299511
92.76871345
92.95686684
93.05004748
93.00558996
92.89937916
92.84168613
92.80387437
92.98778082
93.08379897
92.91665626
92.82062878
92.78846405
92.70519605
92.57056343
92.53752131
92.64611227
92.68776027
92.53084755
92.60110405
92.7840771
92.84304888
93.07047945
93.24333453
93.26072364
93.2683588
93.22298656
93.16266136
93.21733019
93.33681385
93.37599769
93.30921341
93.21957967
93.20876164
93.25665405
93.34900396
93.40639831
93.49184111
93.62048135
93.71192588
93.84996539
93.96852498
94.05411713
94.11805456
94.09098616
94.02704873
93.97869897
93.8558831
93.83663654
93.81854738
93.64651369
93.52232573
93.38209275
93.19750492
93.19200724
93.28984551
93.18912305
93.0598201
93.03507585
93.08432167
93.21768488
93.32658386
93.24423992
93.03900544
92.86182875
92.76180634
92.81295629
92.90986116
92.9266249
92.78293836
92.57267289
92.49721739
92.61862384
92.76123697
92.68514677
92.46438062
92.46438062
92.46438062
92.46438062
92.46438062
91.94227784
92.03585984
92.17430071
92.32749852
92.47508664
92.74072099
92.93012513
92.95649348
93.032257
92.98899423
92.81525243
92.72518933
92.82316761
92.95663349
93.03754001
93.13090732
93.12576433
93.03945346
93.06419772
93.20506541
93.31268564
93.32397036
93.22111977
93.12606301
93.12241345
93.13793577
93.13793577
93.05686125
92.87314148
92.68591215
92.73469127
92.89968718
92.88396884
92.54410173
92.25156699
92.25460985
92.29688323
92.49227041
92.74896285
92.86742911
92.93060116
92.99475327
93.05019682
93.16503218
93.3209555
93.31121087
93.12544697
92.9328413
92.9624112
93.14025059
93.20842562
93.1887497
92.97170779
92.77132695
92.67059517
92.44030841
92.55634785
92.72818552
92.54646321
92.59824787
92.81140685
92.89884712
92.89748437
92.78652259
92.74008629
92.8256131
92.89977118
92.98206845
92.97114776
92.84460765
92.68885234
92.66104656
92.75379783
92.78951879
92.62933919
92.56196687
92.74622801
92.93504411
92.88914917
92.72754148
92.73078036
92.84218083
92.97924961
93.00134302
92.96214985
92.96501536
93.02928881
93.094589
93.10134676
93.01109698
93.00316314
93.07892666
93.12120003
93.2537792
93.22090509
93.05458377
93.00993024
93.01810676
93.13920519
93.22466666
93.18768563
93.15137663
93.10979397
93.10606973
93.16820571
93.21916898
93.05660923
92.80720659
92.76345845
92.87985257
93.10258818
93.20159319
93.14889381
93.14233206
93.16852307
93.19030846
93.17564486
93.15595026
93.1706232
93.16559221
93.17270467
93.24209311
93.31704458
93.38042198
93.42824904
93.47078376
93.50502996
93.51812546
93.46203787
93.46872097
93.51206774
93.47429332
93.54455916
93.66226936
93.62696844
93.59769723
93.67644761
93.67503818
93.54582857
93.33894198
93.16524686
93.0972025
93.05736528
92.97518935
92.88941985
92.84586773
92.78453447
92.86379821
93.05687058
93.151834
93.10586439
92.94136318
92.87641769
93.00134302
93.17041785
93.12357085
92.92738095
92.79590319
92.740861
92.84089274
93.01532525
93.136293
93.10897258
92.94630083
92.79005082
92.66195195
92.7133259
92.84540103
92.85242948
92.76659465
92.73431792
92.7934017
92.83376162
92.92007248
93.02481786
93.06356301
93.04494182
93.00618733
93.02562991
93.03947213
92.96640612
92.87859249
92.78064222
92.73779947
92.79475512
92.86196876
92.85202812
92.7959592
92.75704604
92.87973123
93.05852269
93.10255084
93.07087148
92.96201917
92.85692844
92.84479433
92.97544136
93.11041001
93.10419361
93.06198557
93.06820197
93.29720064
93.29720064
93.29720064
93.29720064
93.29720064
93.75171643
93.77724473
93.78832411
93.70372135
93.53596261
93.36768116
93.29701396
93.34390764
93.41799105
93.42579422
93.40639831
93.44902637
93.50511396
93.49784283
93.41423881
93.32506243
93.3163632
93.36482498
93.43663091
93.52665668
93.57573449
93.59427168
93.64683104
93.72159583
93.78712003
93.84120083
93.82612653
93.66105595
93.43244931
93.2839558
93.2688815
93.29572588
93.26710805
93.18757362
93.13793577
93.17756765
93.23026702
93.23490599
93.18220661
93.1601412
93.23013635
93.32190756
93.38614367
93.49039435
93.59660516
93.64100667
93.66977385
93.6549889
93.6336422
93.61070873
93.50594468
93.37456027
93.3657117
93.4338214
93.44162456
93.3896999
93.31866869
93.23513
93.30664658
93.40977719
93.38255011
93.38857983
93.43538016
93.50621537
93.48943296
93.3693146
93.33070946
93.24891622
93.21135648
93.31380571
93.36124075
93.47342527
93.67493551
93.7742392
93.78727871
93.86078342
94.02331516
94.12524169
94.09817329
94.10853395
94.10573378
93.94024317
93.66673098
93.51857349
93.51857349
93.61070873
93.79751803
93.92779171
94.07689193
94.19048587
94.21615418
94.29082563
94.3496294
94.34160222
94.30155965
94.17023124
93.93837639
93.86107277
93.97459204
94.12300155
94.26329054
94.28326515
94.28326515
94.28326515
94.28326515
94.28326515
94.28326515
94.28326515
94.28326515
92.89898713
93.05328635
93.26591331
93.43147858
93.54591258
93.64054931
93.69229662
93.63601302
93.53809074
93.48655811
93.52620865
93.50123105
93.48564338
93.58910068
93.65290743
93.80345441
93.90605298
93.96600482
94.03806277
93.98896629
93.99148646
94.10862729
94.12673512
94.036476
93.80733733
93.55351973
93.65717304
93.81192029
93.73204984
93.56837935
93.46702219
93.49514532
93.61655177
93.74589206
93.76502661
93.71144051
93.70521478
93.76502661
93.90465289
93.97207188
93.95975109
93.98513938
93.98345927
93.92271405
93.96843165
94.03442254
93.94332337
93.80750534
93.70138787
93.73918096
93.72563742
93.47512404
93.28474918
93.27857012
93.14155734
93.08910998
93.19151254
93.18499746
93.26599731
93.37667907
93.38636769
93.35104809
93.3141884
93.29701396
93.31853801
93.38851449
93.5000083
93.62910591
93.75354588
93.88684375
93.99914028
94.04870345
94.07698527
94.14176275
94.19048587
94.07381173
93.85968201
93.85968201
93.85968201
93.85968201
93.85968201
93.85968201
93.85968201
93.85968201
93.85968201
93.85968201
93.85968201
93.85968201
92.26944147
92.47932425
92.61695306
92.63994254
92.64729767
92.73211511
92.72757882
92.53568252
92.30099949
92.16885902
92.1783423
92.24071163
91.94775686
91.45532665
91.49034756
91.74604127
91.91440672
92.04544578
92.10255078
92.14586955
92.22824149
92.36692505
92.52377243
92.60131873
92.61731709
92.58654312
92.41669357
92.42407671
92.45401063
92.20078107
91.99287708
91.93439067
91.93111446
92.07340091
92.20746416
92.16370669
92.20559738
92.38436083
92.58313623
92.61821314
92.54039616
92.49415586
92.39973381
92.48347785
92.53789467
92.28655056
92.16711358
92.18838561
92.14944445
92.27417377
92.32766653
92.16947506
92.21995296
92.38995185
92.50034426
92.64888444
92.72147443
92.65771434
92.56375899
92.58074674
92.66199862
92.74681605
93.00362984
93.19030846
93.24185043
93.34231153
93.42939711
93.49306386
93.4255142
93.37588568
93.4282117
93.34022073
93.38095401
93.47684149
93.46072179
93.57825465
93.83686988
94.09705322
94.13448228
94.04805008
94.02303514
94.04459652
94.07661191
94.20803366
94.25918361
94.24583608
94.31033355
94.32368107
94.33534849
94.36251023
94.34925604
94.28849215
94.08622586
93.89440424
93.8585246
93.82802132
