96.8255776
97.90642571
99.19183298
99.62336446
100.86953756
101.68533311
101.72048409
102.02037694
102.09090081
101.98806645
101.97031343
101.86468298
101.69642875
101.58955558
101.5630592
101.15136671
100.64815742
100.44009205
100.04269074
99.66122277
99.35591525
98.97324894
98.79531932
98.79531932
98.72359713
98.63292359
98.70464578
98.91342127
98.95767067
98.8396131
98.81395999
99.98046642
101.12828779
100.96979772
100.28657283
100.84304118
101.34114648
100.04158118
100.22674516
100.53169762
99.72983819
99.51591432
99.39581515
99.28441497
99.28441497
98.97151802
98.97151802
98.97151802
98.97151802
97.61412227
97.61412227
97.61412227
97.15285448
96.95126896
96.7820827
96.71360044
96.15207248
95.7027436
95.76572243
95.55308565
95.19811406
95.006559
95.006559
95.006559
95.08649196
95.23348695
95.3190565
95.46405427
95.59054452
95.48961862
95.48961862
95.48961862
97.77953602
98.40923556
98.40923556
98.40923556
98.40923556
94.04700838
94.15530179
94.04700838
93.79047727
93.91963047
94.07452555
94.02614858
93.91963047
93.95158591
93.74609472
93.32046612
93.54992387
93.81533149
93.50820428
93.29250511
93.34221356
93.28851069
93.15713835
93.29649954
93.34221356
93.2032962
93.22238069
93.34221356
93.27697122
93.15713835
93.15713835
93.15713835
93.15713835
93.23525163
93.34221356
93.26454411
93.15713835
93.15713835
93.15713835
93.15713835
93.24767874
93.47136677
93.65999259
93.60806501
93.64579017
93.79047727
93.79047727
93.79047727
93.79047727
93.71458312
93.39813557
93.15713835
93.30670753
93.34221356
93.39059054
93.59963232
93.60806501
93.67996473
93.79047727
94.23119594
95.13886336
95.74131203
96.01066969
96.43887248
96.85926395
96.87448716
96.81576906
97.05073025
97.50276647
97.64545635
97.31609348
97.11703777
97.15502923
97.08739023
97.11743721
97.25165003
97.19257686
97.05840843
96.98539914
96.98539914
97.43561568
98.13938969
98.45854457
98.40910242
98.39401235
99.60920643
99.60920643
101.10245715
100.51132604
101.96432179
101.20919717
101.79446979
103.02138086
101.79446979
102.05739199
102.42106256
101.09664304
101.37793961
101.38717118
100.37524915
100.31147144
100.22297264
99.99631099
99.92272473
99.6868315
99.40735461
99.51795592
99.69326697
99.21806306
99.15410781
99.3621288
99.16622425
99.2027067
99.03986714
98.62289313
98.56643854
98.96770113
99.02420011
98.4137182
97.90629257
97.70413007
97.30659562
96.72935624
96.64618335
96.78186079
96.61897685
96.60344296
96.97070852
96.96027862
96.56549589
96.40926933
96.26981937
95.88178278
95.48713319
95.33530051
95.19869103
94.92533894
94.88006874
94.86497868
94.60090254
94.35502324
94.16550977
94.10071126
94.10071126
94.10071126
94.23430272
94.28179204
94.30398331
94.46331665
94.32972519
94.27602231
94.26004459
94.22675768
94.37366391
94.40695082
94.40695082
94.39940578
94.246286
94.10071126
94.10071126
93.93827114
93.79358405
94.02703623
93.86681525
93.94892295
94.0194912
93.86681525
94.17971219
94.13089139
93.8974392
93.79047727
93.79047727
93.53483381
93.21794244
93.31691551
93.47269825
93.21306036
93.20640298
93.14471124
93.25877438
93.50909193
93.33644383
93.47136677
93.73455526
93.96312537
93.768286
93.89699538
94.02703623
93.78115693
94.08029529
94.57826744
95.06141582
95.15586188
94.89205203
94.74070755
94.70875212
94.80018016
95.24134266
95.44665631
95.52756569
96.49142142
97.82848996
98.61086546
99.25538878
99.73862593
99.79277263
99.91003132
99.99631099
100.12533104
100.35567645
100.45704618
100.36268889
100.24818193
100.35177079
101.54175558
102.19435652
101.6990917
102.0105684
102.06067629
101.55169727
101.26218993
101.45773942
101.51588056
101.08106476
100.90712957
101.09007442
101.2627669
101.14865938
100.04309019
99.46855814
99.8482952
99.43074422
99.29258135
99.26786028
98.95145711
98.93965136
98.64086807
98.58405841
98.78728608
98.55716259
98.72750279
98.62031895
98.32788236
98.53510446
98.32632897
97.66520658
97.45381252
97.59086582
97.42873638
97.40534678
97.28622403
97.102214
97.10718485
96.97079728
97.5860725
97.65561995
96.86529998
96.58302699
96.16467712
95.87681194
95.75311778
95.51602623
95.22132613
94.91113653
94.88006874
94.69233058
94.53699167
94.58670012
94.45621544
94.45266484
94.56939093
94.37055713
94.10071126
94.21699352
94.28179204
94.16550977
94.10071126
94.08562119
93.7736119
93.47624885
93.47624885
93.38570846
93.15891365
93.0586091
93.39280967
93.26276881
93.14204829
93.33555618
93.39458497
93.52728878
93.32179759
93.15713835
93.15713835
93.15713835
93.43319778
93.52728878
93.33910679
93.46648469
93.6950548
93.80778646
94.11580132
94.27335936
94.12023958
94.10071126
94.20545406
94.50947449
94.70875212
94.99280041
95.28865445
95.37937237
95.47683644
95.41536662
95.46290032
95.59054452
95.59054452
95.59054452
95.55339633
95.40839856
95.30050459
95.42229029
95.56733245
95.59054452
95.61801732
95.76115102
95.87681194
95.77029383
95.7027436
95.72165056
95.50102493
95.30050459
95.42925835
95.47683644
95.3480383
95.3376084
95.49401249
95.8863098
96.15935122
96.23968362
96.03783181
95.21444684
95.41625427
96.53935457
97.55322942
98.07641086
97.21734232
96.59132653
97.28613527
98.44500789
99.22631821
98.85772118
98.1747182
98.047074
97.80035143
97.18276832
97.16128717
97.40747714
97.19768085
97.04229756
96.97670016
96.84080081
96.82446803
96.56984537
95.99522457
96.00383478
96.46749923
95.97614007
94.92356364
94.43402417
93.78426371
92.87575302
92.87575302
92.87575302
94.6856732
95.10282474
95.4133694
95.28576959
94.43668712
93.63735749
93.60806501
93.65999259
93.75852184
94.64173448
96.38601287
95.91298371
94.78553392
94.94664256
94.56761563
94.44778276
94.58670012
94.54586818
93.40612443
93.82021357
93.82021357
93.82021357
95.52871964
95.61859429
95.75085427
95.7027436
96.01280005
96.45285299
96.54947379
96.43825113
96.53629217
96.67392244
96.80054584
97.20313991
97.39371855
97.26119228
97.41706377
97.80962738
98.03890761
97.9303479
97.80115032
97.70674864
97.45172654
97.78228773
98.20227976
98.07463556
98.02031132
97.89106935
97.55291874
97.36908624
97.46579581
97.53334604
97.79342775
98.23374698
98.42894141
98.38291671
98.44141291
98.4373741
98.31128329
98.32845933
98.45450576
98.42423686
98.21244336
97.82631522
97.14024984
96.86796293
96.98539914
97.069149
97.20331744
97.24090945
97.10669664
97.09813081
97.15502923
97.08521549
97.19164483
97.80310315
98.29415162
98.29415162
98.29415162
98.29415162
98.29415162
98.1462246
97.88938282
97.77625171
97.51293007
97.25378039
97.38226786
97.61842738
97.62242181
97.64124001
97.5113323
97.17584464
97.09884093
96.63215847
96.03166264
95.79301769
95.56906337
95.37821843
95.29344777
95.14645278
94.88006874
94.63241414
94.45887839
94.40695082
94.3909731
94.23785332
94.23785332
94.23785332
94.23785332
93.60318293
93.40168617
94.30176418
93.67463883
92.99292294
92.83403343
93.06792944
93.20640298
92.97250697
92.87930362
93.04085609
93.15713835
93.15713835
93.15713835
93.26454411
93.42387745
93.47624885
93.44562489
93.28629156
93.15713835
93.29871867
93.57255897
93.65999259
93.67020057
93.87879853
93.91963047
93.95424886
94.10071126
93.9915302
93.91963047
94.08384589
94.28179204
94.22675768
94.25383104
94.52989047
94.68079112
94.64350978
94.60356549
94.96439558
95.30050459
95.42113635
95.47683644
95.29619948
95.12412836
95.18408918
95.1535096
95.12412836
95.35695919
95.47683644
95.41536662
95.46986838
95.86127805
96.24611909
96.39919449
96.63033878
97.43064483
98.03890761
97.86621513
97.9522285
98.74765247
99.28441497
99.01274941
99.20141961
100.34835333
99.91513531
98.70464578
98.68507308
98.89877503
99.04133177
98.84729128
98.94772898
99.61928127
99.99631099
99.62576112
99.62411896
100.4699615
99.62052398
99.03676037
99.55710132
98.80432898
99.1350677
99.43948758
98.88572657
98.9843002
98.43018412
97.78046805
97.78046805
97.7025323
97.43486117
97.11530685
96.77311743
96.49954342
96.47899431
96.6033542
96.42316106
96.15935122
96.07684407
95.88404629
95.68215009
95.59054452
95.85448752
96.04053914
95.78374174
95.49090571
95.46977962
95.28452688
94.88006874
94.63241414
94.45887839
94.40695082
94.40695082
94.40695082
94.40695082
94.40695082
94.40695082
94.35058498
94.25605016
94.46331665
94.40473169
93.97288953
93.91963047
93.97288953
93.91963047
93.97288953
93.92451255
93.94093409
93.97288953
93.91963047
93.83130921
93.46470939
93.40656825
93.83086538
93.95202973
93.6724197
93.50864811
93.6235989
93.88989417
93.93915879
94.13799259
94.11580132
94.1641783
94.51790718
94.64839186
95.00433987
95.1252823
95.29619948
95.36161936
95.3226071
95.53914954
95.33290385
95.3429343
96.36892559
97.46437557
97.91015385
98.07521253
98.4533962
99.17416872
99.65745026
99.75043169
99.63179714
99.24744431
99.50277709
100.7631526
100.62640997
100.16039325
100.47990319
99.84261423
100.40551805
101.02607479
100.40192306
101.13321425
100.89581202
100.09084581
100.86199252
99.94606994
99.45284672
99.98268554
98.68800233
98.76593808
98.79873678
98.05643871
98.5545884
97.77274549
97.67949776
97.99439192
97.33393527
97.98449461
97.54137928
96.88340805
97.7760298
98.29219879
97.67315106
97.6293011
98.37040084
98.78533325
99.51005582
98.71791616
98.09735942
98.46537948
97.88995979
98.1602051
98.01343203
97.73346694
98.34230669
97.71731169
96.98539914
97.08952059
96.9435464
96.57960953
96.85544705
96.97936312
97.12325133
97.39638151
97.14575328
97.53529887
97.14424427
96.78807435
97.19688197
96.64227769
96.32782736
96.02797888
95.6040812
95.5127863
95.31958909
95.10531016
95.006559
94.72828044
94.54054228
94.58670012
94.58492482
94.79219131
94.83257942
94.4118329
94.10825629
94.19613373
94.21388675
94.00528878
94.00262583
94.26847728
94.2671458
94.11446985
94.18636957
94.33948935
94.4642043
94.7642303
94.85876512
94.7100836
94.70875212
94.83169177
95.03474191
94.7642303
94.56140207
94.95507524
95.15905742
95.18564257
95.45211536
95.76345892
95.87681194
96.09015883
96.37087843
96.58950684
97.12977556
97.51878857
97.51878857
97.51878857
97.51878857
97.51878857
100.21822371
101.06193589
101.06193589
101.06193589
100.7789084
102.9864518
100.35106067
101.5200969
103.48642116
101.78972086
102.27180406
101.37900479
99.81913587
102.22422597
100.79688333
99.20128646
101.66185475
100.44812529
99.87368201
101.38206718
101.3990657
98.83668385
95.84840711
97.31076758
100.06443819
98.32131374
97.53969274
99.16475962
98.87733826
98.30511411
99.98525973
101.29347962
100.14716726
99.60996093
99.74723614
99.91371507
99.65891488
99.00334031
99.76498916
100.3433381
99.30443149
99.4511158
99.2337301
98.30609053
98.12975868
98.21617149
98.919191
98.66123965
97.44857538
97.15502923
97.09813081
96.98539914
96.98539914
97.19186674
97.57626396
96.52728251
95.93353283
96.72815791
96.8842957
96.77640174
96.55608679
96.43825113
96.15682141
95.86039039
96.00237016
96.15935122
96.02034509
95.87907545
96.02726876
96.30798836
96.42253971
96.14182011
95.75773357
95.61459986
95.59054452
95.59054452
95.59054452
95.45016253
95.30512038
95.2193733
