83.12925997
82.92944867
84.46053403
85.95584951
85.87440573
85.63209366
85.47112921
86.32181766
87.81953704
88.46656796
88.46656796
89.05994407
90.33208245
91.62787509
92.80193477
94.21657572
95.8623747
97.04874229
97.20095658
96.66219684
96.62738852
97.13105147
97.36913269
97.1160512
96.61998454
96.07314774
95.99237704
96.1318988
95.65612097
94.60494813
93.66993123
93.3861761
93.53040948
93.82108781
93.96762892
93.68156605
93.39079157
93.789068
94.73773899
95.52044544
95.75727664
95.08437987
94.93899262
96.31603674
97.28163111
95.97708831
93.83781888
92.3511574
91.57700879
93.06357412
94.26205731
94.18667134
94.33513556
94.18667134
94.33273167
94.2644612
93.13001762
91.6194134
90.53545151
90.35285205
90.36150605
89.41523895
87.9850208
86.8614428
87.46251136
88.85705579
89.41485433
89.82043858
90.96988243
91.75758898
91.37700518
91.13219306
90.34871736
89.88678594
90.21275337
89.88467051
90.34217878
91.74364642
91.83153262
90.44689221
89.81611158
90.95228596
92.36202298
93.04559302
93.02338108
93.39444548
94.64052569
95.07005268
94.24465315
93.23732726
91.97884297
91.33133127
91.48835334
91.23507953
90.5285283
89.83322728
90.49622003
92.44202442
93.73974018
93.68848926
93.00068836
92.30211805
91.74383873
90.76093635
90.71507014
92.13701891
93.34992544
93.60012227
93.67925832
93.96762892
93.54040966
92.99318823
94.01311051
94.861972
95.00072451
95.44409791
95.22890171
94.78812451
95.78275787
96.50161702
95.38438529
94.45090688
94.36830923
94.8714914
94.90966517
93.7959912
92.07596011
90.63641487
89.03292435
88.80763182
89.91928652
89.87803578
87.73463166
85.80459678
85.3917047
84.5900556
84.44187984
84.20754869
82.68377115
81.78615877
81.54932757
81.5670202
81.5670202
81.5670202
81.5670202
81.5670202
81.5670202
81.5670202
81.5670202
81.5670202
93.47512001
94.0603229
93.76800992
93.07722821
93.17492228
92.88664784
91.59220137
91.02122951
91.2938306
90.85853427
90.58593319
89.63649295
88.72243797
88.81195882
88.66628311
89.17427306
90.2813123
90.98594042
91.48835334
91.96518888
92.24509779
92.75356851
94.02455302
95.27217172
95.75727664
95.98006913
96.44248133
97.0179725
97.83279492
98.60578966
98.90002575
98.67309857
97.87519953
96.75133307
95.97766524
95.75727664
95.02707114
94.80475943
95.94526081
96.70979386
96.29949798
93.46117746
90.56237507
89.80688065
89.85024681
90.82651446
91.46229518
91.32681196
91.55546994
92.29365636
93.51685154
94.89668417
95.97054973
96.40411525
96.71421701
97.84558361
98.80098549
99.40965034
100.17408723
99.93946761
99.17503071
98.27982223
97.88048809
98.00010564
97.21932229
95.57948497
94.88581859
94.89533799
94.96687774
95.76333444
96.55796419
96.62738852
96.36940309
96.14901449
95.69554476
95.23370949
94.78081669
95.4629444
96.85383492
97.84231432
98.62309766
98.78175438
98.14116588
95.27274866
93.48377402
94.43436812
94.99082048
95.15303495
94.861972
94.13772814
93.41213811
93.24867361
94.56744745
96.05112811
96.35719133
96.52815596
96.93133632
97.45326883
98.3153998
100.40582219
102.34720343
102.45489768
101.55103519
100.86640743
101.43180227
101.49814962
99.0490669
96.87306604
96.61008052
96.48546288
95.3992894
93.94791702
92.94347579
92.94616815
94.19888309
95.67314051
95.74660337
96.11930242
97.35182469
97.50240433
97.23595721
97.35153622
97.02864577
94.71802709
91.9870162
90.44823839
89.4530281
90.95920916
92.68972121
90.99632522
90.99632522
90.99632522
90.99632522
88.55060794
92.02557459
95.83689347
97.76644757
97.72250447
97.07633894
94.96043532
94.56225505
95.9803576
96.29594022
96.17968812
95.57150405
95.15303495
96.44334673
98.40482449
99.16829982
99.1644536
99.31061009
99.55388372
99.55388372
98.43270961
96.69383203
95.76756529
95.00803233
94.26205731
93.3268481
92.33567635
91.83528269
91.68518382
91.43969862
91.32681196
91.48835334
91.33133127
91.97884297
92.81203111
93.08011288
93.71916289
94.32330842
94.27388445
94.39667513
94.97755101
94.95514676
94.07176541
93.94791702
94.32350073
93.65973874
92.71366395
92.24509779
91.74653108
91.02622961
91.37113968
93.63223824
93.63223824
93.63223824
93.63223824
93.63223824
93.63223824
93.63223824
93.63223824
93.63223824
93.63223824
93.63223824
102.38855033
101.07506505
100.84909943
99.83850424
96.64142724
95.03207123
96.15343765
97.0980701
96.94816355
94.94283885
92.40346603
90.96372848
90.64170343
91.79432041
90.91468913
88.82936298
88.55397339
88.46656796
88.98580812
89.33225668
88.3045458
85.9840231
84.0787002
84.76553954
86.92221313
87.95242406
86.5100903
85.43680167
86.62509238
87.44443411
88.40195141
89.47831702
89.01080857
85.77680782
82.38530422
81.90519939
84.5556319
86.11546778
85.03217897
84.66044149
84.76842421
86.31825991
88.05656055
87.95646259
88.20329397
89.14715719
89.60303081
90.256408
91.44210251
92.8928018
93.46742757
92.97703409
92.12240326
91.94720779
91.33113896
89.72101371
88.47070265
89.80389982
92.06692149
92.89491722
93.48790871
92.95482215
92.24509779
92.41971633
93.00328456
93.87339644
93.2898282
91.79105112
90.95228596
90.14265595
89.09215619
89.15533041
90.09640511
89.93736377
87.98617467
86.88942408
87.80184441
88.90965289
90.61660682
91.4308523
90.48496982
88.79888166
86.3981652
86.79769165
89.25562068
90.47256575
91.64114456
91.69306858
90.75882093
89.71187893
88.22983292
86.92932864
87.6414569
89.73005233
91.17209763
91.98307382
92.46731334
93.19742269
94.37013619
95.76593064
98.02549071
99.55388372
99.33464898
98.25309098
96.20920789
93.91945497
91.20229048
89.20965831
88.3233923
87.13317848
87.90617322
89.77870706
90.1263095
89.52408707
88.98676967
88.98676967
89.07734823
89.35350707
90.06255834
90.78257136
91.05574937
91.13219306
91.13219306
91.36219722
92.41971633
93.9018585
94.14051666
94.14051666
94.14051666
94.14051666
94.14051666
94.14051666
94.14051666
94.14051666
94.14051666
77.66579585
79.6409277
81.64442544
83.23503111
83.25599303
82.73877214
83.46032364
80.95835535
78.6353326
79.90804791
81.61673264
82.40943927
81.99789337
82.04116338
81.76125448
81.10441568
80.91527765
81.78317795
83.14012555
84.07379627
86.16671871
88.04213722
88.2958918
88.13752355
87.24750747
86.08142871
85.34824238
85.2737218
85.66305576
86.6453812
88.57887768
90.70353147
91.24113734
89.64832009
87.57530186
87.30173922
86.59249563
85.06217952
85.17958548
85.22968254
85.59266987
86.76297948
87.89953848
87.08865845
85.46257137
85.27968345
86.39479975
87.64559159
88.13127344
88.63926339
88.40752843
87.56059005
86.95230983
86.55624498
85.68420999
84.53111223
83.77369469
83.30320542
83.69600098
84.48899608
84.88313782
86.24768171
87.78790185
88.74676533
90.23631148
90.84814946
90.38737191
89.89303605
89.31725641
89.27542873
89.30908319
88.58782015
87.48481945
86.67249708
86.98846433
87.74155486
87.94434699
87.69030393
86.61057288
85.38439688
84.99198594
85.64353618
86.50162861
86.78365293
86.65268903
85.86450171
85.63767069
86.74711381
87.98405924
87.91780805
86.97817568
86.27152829
85.01814026
84.89823425
86.22268126
86.34258727
86.37018392
86.74442146
86.46730106
85.37430054
85.55997697
87.1145243
87.77780552
87.18731408
86.13027574
85.70671039
85.7774809
85.52786101
84.36072453
82.95041058
82.70425229
84.02244919
85.62632433
86.8906741
87.21750693
86.96654085
86.98856048
87.23962271
86.42422336
84.88890715
83.9804292
83.5870567
83.44782342
83.3036862
83.67436597
83.34339845
82.43290123
82.22885908
82.83733162
83.73994408
84.33370481
85.29458756
85.284972
83.99706411
82.58309625
81.41692133
81.40653653
82.44732457
83.34897548
83.33022514
82.80973496
81.9380846
81.93250757
82.82290828
83.12925997
83.31416716
83.91235104
84.90621516
86.46566642
87.95030863
88.55185797
88.30002649
88.2054094
88.2958918
88.20012084
88.62685932
88.98676967
88.81820893
88.32031532
87.4667422
86.70624769
86.74961386
87.17856392
87.13519775
86.51230188
85.77998095
85.36237725
86.34576041
88.22233278
89.03071277
88.83965163
89.33235284
90.04640421
90.04640421
89.87890118
88.83186303
87.13779395
86.57874538
87.41808748
88.23415992
88.27117982
88.12108095
88.27550682
87.91463491
88.58791631
90.04428878
90.26265811
90.65006896
90.90930442
91.2061367
92.54981483
94.26349965
95.76121902
96.36940309
96.03372395
95.14986182
93.92676279
91.91884189
90.38525648
90.00034568
89.60610779
88.93138406
88.26704513
87.57876346
86.60778437
87.55616689
88.79743933
88.33695024
87.73520859
86.92538626
85.79844282
85.16420059
86.05998601
87.63741836
87.96050113
87.31972031
87.24760363
88.11069615
89.31052552
90.21496494
90.58593319
89.36398803
88.19733233
88.35964295
88.46656796
88.70378379
88.36695078
87.14923646
85.74873039
85.59699687
86.55566804
87.20539132
87.72684306
88.14983147
88.40685535
88.54233856
89.33235284
90.47208498
91.01488325
90.9262278
89.8535161
89.67764754
90.17688733
89.74937961
89.5134138
88.56166584
87.52722406
87.72540072
89.02648193
88.64339808
86.43201196
85.10506491
84.78928997
85.91411799
87.14029399
87.45664587
87.71059276
87.95242406
87.8609801
87.61107173
87.95953957
88.46656796
88.21050564
87.44837649
87.18741023
87.75732438
88.42512491
89.14071476
88.75791938
88.30012265
88.79234308
88.98676967
88.24031387
87.46914609
87.37818291
87.12712068
87.86646096
88.73888058
88.45416389
87.83280651
86.78346062
86.68192033
87.94607779
89.08205986
89.5134138
89.37225741
89.1637921
89.30485234
89.98967241
90.3683331
89.73649476
88.07223391
87.17135225
87.42231832
87.55068603
88.06175295
88.2424293
87.71866983
87.26558472
87.53222415
87.95242406
88.07579167
88.25925652
87.88184586
88.05521438
88.9485959
89.48879797
90.43939208
91.13219306
90.39650669
89.00811621
88.15396616
87.73097775
87.60905247
87.83049878
87.95242406
88.60176271
89.93822917
91.0933462
91.34671617
91.38873616
91.31354249
91.15777044
92.03692095
92.2125972
91.68518382
91.82182091
91.81768622
90.59516412
89.98967241
91.17594385
92.80847335
94.74408526
95.75727664
95.24813283
94.29667332
93.71791286
93.7745485
93.96762892
93.72810536
92.80626177
91.34488921
89.77630317
89.48274017
90.35131356
90.74997461
90.39044888
88.72464955
87.44443411
87.60386006
88.11492699
87.24135351
85.84055897
85.78123097
86.67086243
87.66386115
88.05156046
88.2958918
88.16213938
87.73905482
87.60905247
87.89684613
88.54406936
88.15271614
86.90557821
86.24383549
86.22066199
87.16548676
88.17560117
88.42608646
87.41597205
86.28143232
86.48489754
87.91992347
89.24167812
88.9992699
88.14992763
87.62126423
87.93098136
88.60224349
88.66484078
87.99348249
86.97731028
86.33893336
86.30277886
87.45222271
89.37360359
90.43333428
90.79170614
91.62124036
93.65252707
96.0037234
97.11941664
97.33278588
97.84808366
98.61059744
99.50099814
99.43753546
98.86252507
99.48753636
100.3337055
100.09908588
100.56255579
100.4490922
99.11349114
99.0490669
99.37599589
99.49715192
