94.867227726228919, 94.877248806776265, 94.886044055133084, 94.89359105617666, 94.899868764823012, 94.904857536435415, 94.908539155688018, 94.910896863843135, 94.911915384406782, 94.911580947126041, 94.909881310296058, 94.906805781343493, 94.902345235658402, 94.896492133645935, 94.889240535974338, 94.880586116992831, 94.870526176302022, 94.859059648455144, 94.846187110773855, 94.831910789265336, 94.81623456262767, 94.799163964332195, 94.780706182777877, 94.760870059509017, 94.739666085496651, 94.717106395479661, 94.693204760368872, 94.667976577718093, 94.641438860266803, 94.613610222564972, 94.584510865688657, 94.554162560061769, 94.522588626396697, 94.48981391477453, 94.455864781882454, 94.420769066430807, 94.384556062775957, 94.347256492773454, 94.308902475891088, 94.269527497613495, 94.229166376169943, 94.187855227621355, 94.145631429343581, 94.102533581945423, 94.058601469663401, 94.013876019275585, 93.968399257579122, 93.922214267479049, 93.875365142735632, 93.827896941421145, 93.779855638137093, 93.731288075046322, 93.682241911773005, 93.632765574228941, 93.582908202421962, 93.532719597306809, 93.482250166737586, 93.431550870584459, 93.380673165076146, 93.329668946432392, 93.278590493850515, 93.227490411912513, 93.176421572477423, 93.125437056127936, 93.074590093237163, 93.023934004724822, 92.973522142571952, 92.923407830162304, 92.873644302520844, 92.824284646519018, 92.775381741116504, 92.726988197709829, 92.67915630065805, 92.631937948054841, 92.585384592818073, 92.539547184165485, 92.494476109545715, 92.450221137094687, 92.406831358685224, 92.364355133636266, 92.32284003315209, 92.282332785554559, 92.242879222376516, 92.204524225380226, 92.167311674563919, 92.131284397220483, 92.096484118109501, 92.062951410802185, 92.030725650259569, 91.999844966700962, 91.970346200819606, 91.94226486039976, 91.915635078389158, 91.890489572478359, 91.866859606236503, 91.84477495185368, 91.824263854532589, 91.805352998579281, 91.788067475230577, 91.772430752262679, 91.758464645417789, 91.746189291685695, 91.735623124475381, 91.726782850708091, 91.719683429863096, 91.714338055003083, 91.710758135805335, 91.708953283622037, 91.708931298590315, 91.710698158810771, 91.714258011610667, 91.719613166906285, 91.726764092673903, 91.735709412540317, 91.746445905497779, 91.758968507748719, 91.773270316679714, 91.789342596965241, 91.807174788797553, 91.826754518234821, 91.848067609661385, 91.871098100347098, 91.895828257093527, 91.922238594949548, 91.950307897979343, 91.980013242060863, 92.01133001969157, 92.044231966776053, 92.078691191366929, 92.114678204328968, 92.152161951893447, 92.191109850067548, 92.231487820862483, 92.27326033029901, 92.316390428151124, 92.360839789382297, 92.406568757229081, 92.453536387885421, 92.501700496735623, 92.551017706087066, 92.601443494347251, 92.652932246590851, 92.705437306459444, 92.758911029335948, 92.813304836733153, 92.868569271834502, 92.924654056124467, 92.981508147043982, 93.03907979660508, 93.09731661089701, 93.156165610417673, 93.215573291158535, 93.275485686375205, 93.335848428970849, 93.396606814421759, 93.457705864171359, 93.519090389420185, 93.580705055237772, 93.642494444921226, 93.70440312452736, 93.766375707501425, 93.828356919328371, 93.890291662131503, 93.952125079141311, 94.01380261896081, 94.075270099551503, 94.136473771864033, 94.197360383040319, 94.257877239110911, 94.317972267116005, 94.37759407657353, 94.436692020225166, 94.49521625398566, 94.55311779602539, 94.610348584916238, 94.666861536770668, 94.722610601306698, 94.777550816770997, 94.831638363655316, 94.884830617140707, 94.937086198207354, 94.988365023347924, 95.038628352824773, 95.087838837412235, 95.135960563567394, 95.182959096974258, 95.228801524408738, 95.273456493871947, 95.316894252943698, 95.359086685308029, 95.400007345406323, 95.439631491173415, 95.477936114817496, 95.514899971603867, 95.550503606605915, 95.584729379390467, 95.617561486603861, 95.648985982430588, 95.678990796897651, 95.707565751998402, 95.734702575616254, 95.760394913227131, 95.784638337363873, 95.807430354828426, 95.828770411641074, 95.848659895715187, 95.867102137253653, 95.884102406860706, 95.899667911369946, 95.913807787388507, 95.926533092561911, 95.937856794566727, 95.947793757839491, 95.95636072805496, 95.96357631436706, 95.969460969431324, 95.974036967226567, 95.977328378700463, 95.979361045262408, 95.980162550151476, 95.979762187709881, 95.978190930593698, 95.975481394956404, 95.971667803641907, 95.966785947427269, 95.960873144356128, 95.953968197207743, 95.946111349148353, 95.937344237612081, 95.92770984646306, 95.917252456491823, 95.906017594299314, 95.894051979626155, 95.881403471185507, 95.868121011060012, 95.854254567723672, 95.839855077754081, 95.824974386299104, 95.809665186364995, 95.79398095699446, 95.77797590040413, 95.761704878152273, 95.745223346409006, 95.728587290401379, 95.71185315810979, 95.69507779328768, 95.67831836788352, 95.661632313940075, 95.645077255049642, 95.628710937442619, 95.612591160788, 95.596775708786254, 95.58132227963182, 95.566288416426602, 95.551731437623815, 95.537708367581558, 95.524275867306457, 95.511490165466952, 95.499406989755542, 95.488081498679634, 95.477568213858873, 95.467920952908443, 95.459192762984657, 95.45143585507131, 95.444701539081777, 95.439040159853107, 95.434501034105935, 95.431132388444581, 95.428981298468514, 95.428093629067234, 95.428513975967789, 95.430285608604379, 95.433450414375429, 95.438048844355691, 95.444119860526101, 95.45170088458346, 95.460827748391509, 95.47153464613146, 95.483854088208616, 95.497816856971056, 95.513451964291491, 95.530786611065579, 95.549846148672472, 95.570654042446748, 95.593231837204371, 95.617599124865094, 95.643773514211091, 95.671770602818668, 95.701603951198379, 95.733285059174676, 95.766823344536704, 95.802226123985804, 95.839498596404866, 95.878643828472192, 95.919662742638181, 95.962554107482205, 96.00731453046383, 96.053938453078899, 96.102418148429948, 96.152743721216126, 96.204903110146446, 96.258882092775593, 96.314664292761364, 96.372231189537487, 96.431562130394411, 96.492634344957054, 96.555422962047345, 96.619901028913503, 96.686039532809687, 96.753807424902462, 96.823171646481498, 96.894097157447419, 96.966546967046767, 97.040482166823509, 97.115861965752146, 97.192643727515033, 97.270783009885406, 97.350233606174456, 97.430947588697336, 97.51287535421308, 97.595965671288866, 97.680165729538558, 97.765421190681209, 97.851676241366405, 97.938873647707808, 98.026954811466297, 98.115859827822462, 98.205527544674382, 98.295895623397527, 98.386900600999567, 98.478477953603345, 98.570562161186999, 98.663086773513044, 98.75598447717141, 98.849187163665334, 98.942625998464081, 99.036231490947472, 99.129933565165132, 99.223661631332902, 99.317344657987334, 99.410911244720012, 99.504289695410407, 99.597408091877668, 99.690194367869324, 99.78257638330642, 99.874481998702336, 99.965839149673783, 100.0565759214614, 100.1466206233786, 100.2359018631051, 100.32434862074447, 100.41189032256374, 100.49845691433242, 100.58397893418207, 100.66838758490407, 100.75161480560686, 100.83359334265336, 100.91425681979968, 100.99353980745857, 101.07137789101043, 101.14770773808696, 101.22246716475301, 101.29559520051308, 101.3670321520722, 101.43671966577904, 101.50460078868387, 101.57062002814347, 101.63472340990725, 101.69685853462052, 101.75697463268357, 101.81502261740525, 101.87095513639269, 101.92472662112158, 101.97629333463176, 102.02561341729573, 102.07264693061104, 102.11735589896688, 102.15970434934127, 102.1996583488836, 102.23718604034289, 102.27225767530253, 102.30484564518589, 102.33492450999876, 102.36247102477772, 102.38746416371646, 102.4098851419436, 102.42971743492848, 102.44694679549576, 102.46156126842898, 102.47355120264979, 102.48290926095866, 102.48963042732916, 102.49371201174658, 102.49515365258873, 102.49395731654593, 102.49012729608245, 102.4836702044424, 102.47459496820768, 102.46291281741644, 102.44863727325576, 102.43178413334121, 102.41237145460343, 102.39041953379926, 102.36595088567289, 102.33899021878973, 102.3095644090744, 102.27770247107949, 102.24343552702248, 102.20679677362185, 102.16782144677494, 102.12654678411408, 102.08301198548638, 102.03725817140098, 101.98932833949092, 101.93926731904001, 101.88712172362506, 101.83293990192827, 101.77677188677467, 101.71866934245182, 101.65868551037266, 101.59687515314114, 101.53329449708436, 101.4680011733162, 101.40105415739765, 101.33251370766236, 101.26244130227602, 101.19089957510091, 101.11795225043608, 101.04366407670693, 100.96810075917872, 100.8913288917672, 100.81341588802479, 100.73442991137695, 100.65443980468781, 100.57351501923232, 100.49172554315452, 100.40914182949057, 100.32583472383638, 100.24187539174058, 100.15733524590155, 100.07228587325029, 99.9867989619989, 99.900946228734412, 99.814799345639344, 99.728429867917754, 99.641909161506945, 99.555308331153768, 99.468698148934124, 99.382148983293845, 99.295730728688227, 99.209512735896482, 99.123563743087274, 99.037951807709703, 98.95274423928366, 98.868007533161745, 98.783807305335003, 98.700208228351343, 98.61727396841647, 98.535067123744355, 98.453649164222384, 98.373080372456542, 98.293419786258283, 98.214725142634506, 98.137052823339502, 98.060457802045676, 97.984993593189259, 97.910712202543792, 97.837664079571923, 97.765898071606856, 97.695461379907641, 97.626399517635804, 97.558756269794259, 97.492573655169039, 97.427891890312992, 97.364749355605355, 97.303182563421913, 97.243226128445144, 97.18491274014454, 97.128273137450179, 97.073336085645678, 97.02012835549921, 96.968674704651662, 96.918997861276935, 96.871118510027998, 96.825055280278391, 96.780824736667398, 96.738441371953087, 96.697917602177142, 96.659263764139681, 96.622488115182463, 96.587596835274496, 96.554594031392227, 96.523481744183385, 96.494259956901857, 96.466926606597298, 96.441477597541507, 96.417906816870612, 96.396206152419992, 96.376365512726068, 96.358372849166656, 96.342214180209908, 96.327873617738319, 96.315333395413163, 96.304573899041714, 96.295573698907603, 96.288309584022429, 96.282756598255318, 96.278888078293775, 96.276675693388086, 96.276089486829804, 96.27709791911218, 96.279667912718665, 96.283764898485188, 96.289352863478157, 96.296394400330144, 96.304850757972844, 96.314681893706108, 96.32584652653928, 96.338302191741192, 96.352005296533093, 96.366911176857442, 96.382974155154827, 96.400147599080498, 96.418383981090443, 96.437634938826221, 96.457851336227705, 96.478983325301002, 96.500980408469559, 96.523791501434886, 96.547364996473291, 96.571648826095029, 96.596590526991577, 96.622137304196073, 96.648236095384206, 96.674833635238741, 96.70187651980595, 96.729311270767312, 96.757084399555183, 96.785142471236611, 96.813432168093868, 96.841900352828247, 96.870494131316065, 96.89916091484433, 96.927848481756811, 96.956505038440454, 96.985079279583275, 97.013520447635969, 97.041778391411128, 97.069803623754225, 97.097547378222117, 97.124961664705992, 97.151999323937986, 97.178614080820495, 97.204760596519478, 97.230394519266298, 97.255472533809964, 97.279952409469274, 97.303793046730149, 97.326954522339662, 97.349398132848279, 97.371086436553256, 97.391983293799683, 97.412053905596352, 97.431264850506608, 97.449584119775267, 97.466981150656466, 97.483426857907375, 97.498893663418514, 97.513355523947922, 97.526787956935081, 97.539168064368383, 97.550474554683774, 97.560687762674874, 97.569789667396236, 97.577763908045526, 97.584595797810294, 97.590272335669567, 97.594782216142519, 97.598115836977485, 97.600265304778944, 97.60122443857108, 97.600988771300038, 97.599555549278307, 97.59692372957754, 97.59309397537946, 97.588068649294684, 97.581851804664268, 97.574449174858373, 97.565868160591947, 97.556117815275698, 97.545208828426908, 97.533153507163945, 97.519965755811697, 97.505661053647373, 97.490256430817382, 97.47377044245988, 97.456223141066886, 97.437636047124499, 97.418032118069874, 97.39743571560696, 97.375872571422818, 97.353369751350229, 97.329955618023206, 97.305659792072774, 97.280513111913237, 97.254547592170738, 97.227796380805884, 97.20029371498515, 97.172074875756934, 97.143176141587844, 97.113634740819066, 97.083488803099911, 97.052777309859565, 97.021540043879355, 96.989817538025108, 96.957651023204562, 96.925082375612604, 96.892154063328888, 96.858909092332169, 96.825390951997861, 96.791643560143683, 96.757711207690335, 96.723638503003087, 96.68947031598185, 96.655251721965925, 96.621027945520382, 96.58684430417162, 96.552746152157937, 96.518778824262725, 96.484987579795259, 96.451417546786843, 96.418113666466141, 96.38512063808011, 96.352482864123942, 96.320244396044544, 96.288448880480587, 96.257139506101112, 96.226358951104785, 96.196149331439059, 96.166552149800722, 96.137608245474127, 96.109357745065765, 96.081840014191201, 96.055093610168285, 96.02915623577114, 96.004064694096186, 95.979854844591713, 95.95656156029905, 95.934218686354043, 95.912858999793443, 95.89251417071209, 95.873214724812328, 95.854990007386121, 95.837868148770681, 95.821876031312456, 95.807039257876653, 95.793382121934414, 95.780927579259753, 95.769697221265289, 95.759711250004116, 95.750988454863972, 95.743546190974897, 95.737400359354837, 95.732565388808467, 95.729054219599576, 95.726878288909305, 95.72604751809429, 95.726570301754577, 95.728453498619558, 95.731702424258529, 95.73632084561936, 95.742310977396642, 95.749673480230115, 95.758407460729757, 95.768510473322507, 95.779978523915034, 95.792806075362449, 95.806986054731723, 95.822509862347701, 95.839367382604763, 95.857546996528171, 95.877035596064871, 95.897818600082445, 95.919879972053465, 95.943202239398573, 95.967766514462937, 95.993552517095111, 96.020538598798993, 96.04870176842482, 96.078017719366315, 96.108460858226422, 96.140004334914693, 96.172620074136972, 96.206278808236206, 96.240950111342272, 96.276602434787009, 96.313203143739273, 96.350718555013088, 96.389113976002164, 96.428353744690924, 96.468401270692155, 96.509219077260752, 96.550768844230447, 96.593011451821141, 96.635907025262568, 96.679414980179928, 96.723494068684971, 96.768102426117849, 96.813197618381338, 96.858736689811366, 96.904676211525569, 96.950972330191419, 96.997580817156305, 97.044457117879233, 97.091556401607704, 97.13883361123797, 97.186243513301562, 97.233740748018676, 97.281279879358479, 97.328815445049457, 97.376302006479122, 97.423694198427327, 97.470946778572639, 97.518014676717712, 97.564853043673409, 97.611417299748481, 97.657663182786976, 97.703546795700376, 97.749024653438852, 97.794053729349628, 97.838591500869271, 97.88259599449961, 97.926025830015803, 97.96884026385861, 98.010999231661529, 98.052463389867185, 98.093194156386545, 98.133153750256767, 98.17230523025529, 98.210612532427859, 98.248040506490909, 98.284554951069367, 98.320122647733342, 98.354711393797402, 98.388290033848975, 98.420828489974014, 98.452297790648259, 98.482670098266595, 98.511918735282293, 98.540018208931102, 98.566944234517052, 98.592673757237606, 98.617184972528591, 98.640457344910828, 98.662471625322084, 98.683209866920549, 98.702655439346401, 98.720793041432231, 98.737608712352909, 98.753089841208109, 98.76722517503363, 98.780004825237441, 98.7914202724603, 98.801464369861947, 98.810131344835384, 98.817416799153705, 98.823317707557308, 98.827832414788105, 98.8309606310833, 98.832703426138679, 98.83306322155704, 98.832043781796486, 98.829650203636618, 98.825888904181468, 98.82076760742072, 98.814295329370751, 98.806482361820599, 98.79734025470853, 98.786881797156212, 98.775120997189362, 98.762073060176064, 98.747754366012956, 98.732182445094566, 98.715375953098359, 98.697354644622351, 98.678139345712466, 98.657751925317186, 98.636215265709666, 98.613553231917223, 98.589790640200235, 98.564953225622673, 98.539067608757662, 98.512161261572714, 98.48426247253947, 98.455400311013918, 98.425604590933887, 98.394905833880415, 98.363335231551616, 98.330924607696701, 98.297706379558775, 98.263713518876415, 98.228979512492074, 98.193538322618565, 98.157424346811993, 98.120672377702419, 98.083317562531462, 98.045395362547197, 98.006941512306653, 97.967991978935245, 97.928582921393726, 97.888750649800642, 97.84853158486159, 97.807962217451859, 97.767079068402424, 97.725918648536592, 97.684517419004223, 97.642911751961478, 97.601137891640619, 97.559231915856188, 97.517229697992704, 97.475166869515789, 97.433078783051599, 97.39100047607522, 97.348966635249639, 97.30701156145544, 97.265169135548831, 97.223472784887917, 97.181955450661704, 97.140649556058747, 97.099586975308966, 97.058799003631322, 97.018316328119781, 96.978168999596633, 96.938386405463177, 96.898997243574158, 96.86002949716287, 96.821510410840332, 96.78346646769262, 96.745923367497298, 96.708906006078678, 96.672438455820611, 96.636543947353516, 96.60124485243081, 96.566562668008231, 96.532518001537809, 96.499130557487433, 96.466419125094234, 96.434401567358208, 96.40309481128314, 96.372514839366545, 96.342676682342642, 96.31359441317683, 96.285281142312755, 96.257749014166748, 96.231009204867135, 96.205071921231479, 96.17994640097433, 96.155640914136072, 96.132162765722512, 96.109518299542628, 96.087712903231036, 96.066751014438935, 96.046636128178378, 96.02737080530018, 96.008956682086449, 95.991394480937004, 95.97468402212759, 95.958824236614618, 95.94381317986398, 95.929648046676149, 95.916325186980373, 95.9038401225706, 95.892187564752376, 95.881361432870065, 95.87135487368414, 95.862160281564115, 95.853769319464959, 95.846172940651243, 95.839361411135457, 95.833324332792245, 95.828050667114084, 95.823528759569285, 95.819746364524448, 95.816690670693745, 95.814348327074924, 95.81270546933186, 95.811747746585496, 95.811460348571032, 95.81182803312096, 95.812835153934145, 95.814465688588044, 95.816703266754757, 95.819531198577508, 95.822932503168559, 95.826889937184603, 95.831386023441368, 95.836403079523549, 95.841923246351413, 95.847928516662307, 95.854400763367238, 95.861321767742552, 95.868673247417419, 95.876436884117552, 95.884594351127788, 95.893127340434305, 95.902017589510962, 95.911246907710762, 95.920797202229636, 95.930650503604568, 95.94078899071387, 95.951195015245432, 95.96185112560012, 95.972740090200105, 95.983844920169815, 95.995148891361509, 96.006635565696513, 96.01828881179452, 96.030092824865235, 96.042032145837155, 96.054091679699752, 96.066256713036069, 96.07851293072568, 96.090846431796393, 96.103243744406669, 96.115691839942301, 96.128178146209578, 96.140690559711828, 96.153217456995421, 96.165747705053462, 96.178270670776712, 96.190776229443145, 96.203254772237983, 96.215697212799128, 96.22809499278172, 96.240440086440941, 96.252725004228708, 96.264942795406441, 96.27708704967381, 96.289151897815898, 96.301132011374008, 96.313022601344557, 96.324819415913652, 96.336518737235465, 96.348117377264501, 96.35961267265229, 96.371002478721977, 96.382285162533606, 96.393459595056356, 96.4045251424631, 96.415481656566627, 96.426329464414408, 96.437069357064289, 96.447702577561202, 96.458230808137884, 96.468656156663229, 96.478981142363267, 96.489208680840392, 96.499342068418031, 96.509384965837839, 96.519341381338933, 96.52921565314891, 96.539012431416424, 96.548736659617234, 96.558393555465244, 96.567988591362251, 96.577527474418943, 96.587016126081551, 96.596460661398837, 96.605867367964535, 96.615242684570831, 96.624593179609022, 96.633925529253503, 96.643246495466471, 96.652562903858879, 96.661881621447151, 96.671209534340335, 96.680553525397315, 96.689920451890416, 96.69931712321322, 96.708750278669754, 96.71822656538329, 96.727752516360212, 96.737334528747965, 96.746978842321809, 96.756691518238199, 96.766478418089733, 96.77634518329765, 96.786297214877195, 96.796339653609778, 96.806477360656046, 96.816714898643639, 96.827056513261937, 96.837506115394902, 96.848067263825428, 96.858743148538409, 96.869536574655143, 96.880449947025369, 96.891485255504932, 96.902644060947864, 96.913927481934707, 96.925336182265369, 96.93687035923729, 96.948529732733348, 96.960313535138582, 96.972220502107561, 96.984248864200225, 96.996396339403603, 97.008660126556109, 97.021036899689221, 97.033522803299562, 97.046113448564313, 97.058803910510804, 97.071588726148931, 97.084461893575423, 97.097416872055931, 97.110446583091047, 97.12354341246818, 97.136699213304183, 97.149905310077358, 97.163152503649243, 97.17643107727406, 97.189730803592838, 97.203040952604965, 97.216350300614479, 97.229647140139363, 97.242919290777152, 97.256154111014837, 97.269338510971096, 97.282458966057533, 97.295501531543565, 97.308451858008397, 97.321295207663297, 97.334016471523825, 97.346600187412236, 97.359030558768495, 97.37129147424713, 97.383366528074589, 97.39523904114283, 97.406892082812547, 97.418308493397717, 97.429470907302729, 97.440361776782751, 97.450963396296146, 97.46125792741627, 97.471227424271518, 97.480853859477705, 97.49011915053002, 97.499005186618021, 97.507493855827732, 97.515567072693756, 97.523206806064209, 97.530395107239414, 97.537114138346567, 97.543346200909582, 97.549073764576164, 97.554279495959562, 97.558946287556466, 97.563057286698566, 97.566595924497591, 97.569545944741321, 97.571891432700369, 97.573616843802398, 97.574707032133588, 97.575147278724941, 97.574923319580918, 97.574021373411384, 97.572428169022317, 97.570130972327007, 97.567117612935093, 97.563376510279923, 97.558896699244443, 97.553667855244555, 97.547680318732759, 97.540925119083099, 97.53339399781791, 97.52507943114216, 97.51597465174612, 97.506073669842792, 97.495371293403821, 97.483863147560967, 97.471545693139632, 97.458416244292351, 97.444472985201458, 97.429714985821406, 97.414142216630481, 97.397755562366186, 97.380556834716245, 97.362548783940795, 97.343735109401678, 97.324120468975707, 97.303710487331799, 97.282511763050124, 97.260531874566922, 97.237779384926071, 97.214263845322961, 97.189995797426064, 97.164986774463756, 97.139249301064908, 97.112796891844823, 97.085644048727048, 97.057806256996074, 97.029299980075578, 97.000142653029343, 96.970352674782816, 96.939949399066961, 96.908953124083965, 96.877385080900623, 96.845267420573123, 96.812623200010108, 96.779476366583495, 96.7458517414954, 96.711775001915157, 96.677272661897405, 96.642372052098281, 96.60710129830521, 96.571489298798568, 96.535565700565698, 96.49936087438752, 96.462905888822021, 96.426232483107754, 96.38937303901389, 96.352360551664177, 96.315228599363394, 96.278011312457053, 96.240743341254586, 96.203459823051062, 96.166196348279797, 96.128988925831635, 96.091873947579288, 96.054888152141856, 96.018068587931211, 95.981452575518759, 95.945077669364437, 95.908981618949682, 95.87320232935798, 95.837777821347004, 95.802746190956981, 95.768145568701016, 95.734014078384092, 95.700389795597445, 95.667310705936686, 95.634814662991801, 95.602939346157015, 95.571722218311621, 95.541200483419971, 95.511411044101081, 95.482390459219189, 95.454174901544079, 95.426800115533538, 95.400301375288066, 95.374713442728037, 95.35007052604621, 95.326406238483628, 95.303753557481656, 95.282144784259728, 95.261611503868707, 95.242184545769689, 95.223893944988404, 95.206768903892595, 95.190837754642345, 95.176127922359825, 95.162665889066375, 95.150477158433361, 95.139586221391511, 95.130016522644723, 95.121790428131689, 95.114929193478432, 95.109452933483595, 95.105380592677804, 95.102729916996452, 95.101517426605085, 95.101758389914664, 95.103466798823007, 95.106655345216637, 95.111335398768333, 95.117516986060267, 95.125208771065573, 95.134418037015976, 95.145150669684497, 95.157411142108572, 95.171202500778136, 95.18652635331253, 95.203382857646019, 95.221770712743279, 95.241687150861083, 95.263127931373418, 95.286087336173651, 95.310558166666652, 95.336531742361828, 95.363997901075223, 95.392945000747986, 95.423359922887073, 95.455228077630451, 95.488533410438365, 95.523258410410975, 95.559384120228856, 95.596890147712642, 95.635754678995681, 95.675954493301006, 95.717464979313135, 95.760260153132577, 95.804312677799118, 95.849593884368588, 95.896073794524568, 95.943721144707411, 95.992503411737317, 96.04238683991008, 96.09333646953975, 96.145316166921802, 96.198288655688984, 96.252215549529268, 96.307057386234519, 96.362773663046369, 96.419322873264534, 96.47666254408108, 96.534749275602294, 96.59353878101939, 96.652985927886235, 96.713044780461942, 96.773668643075041, 96.834810104464154, 96.896421083047997, 96.958452873078301, 97.020856191626834, 97.083581226355932, 97.146577684023029, 97.209794839666017, 97.273181586418502, 97.336686485899179, 97.400257819123382, 97.463843637879705, 97.527391816516669, 97.590850104083614, 97.654166176767845, 97.717287690571112, 97.780162334167599, 97.842737881885, 97.904962246750188, 97.966783533540777, 98.028150091784369, 98.089010568644781, 98.149313961638398, 98.209009671120342, 98.268047552482159, 98.326377968002035, 98.383951838290471, 98.44072069327099, 98.496636722641256, 98.55165282575517, 98.605722660870171, 98.658800693703924, 98.71084224524509, 98.761803538762891, 98.81164174596276, 98.860315032233927, 98.907782600938305, 98.954004736688589, 98.99894284756553, 99.04255950622732, 99.084818489860481, 99.125684818928676, 99.165124794672337, 99.20310603531631, 99.239597510942616, 99.274569576987275, 99.307994006322559, 99.339844019884779, 99.370094315814242, 99.398721097069171, 99.42570209748348, 99.451016606235072, 99.474645490696574, 99.496571217639058, 99.516777872764294, 99.535251178540989, 99.551978510321888, 99.56694891072263, 99.580153102243813, 99.591583498118823, 99.601234211374461, 99.609101062091327, 99.615181582852713, 99.619475022376037, 99.621982347317754, 99.622706242249393, 99.621651107802393, 99.61882305698073, 99.614229909644394, 99.607881185167358, 99.599788093275976, 99.589963523076932, 99.578422030283733, 99.565179822655494, 99.550254743661284, 99.533666254387242, 99.515435413704523, 99.495584856718679, 99.47413877152276, 99.451122874278312, 99.426564382651279, 99.400491987630076, 99.372935823756066, 99.34392743779884, 99.313499755909746, 99.281687049287569, 99.248524898396752, 99.214050155772867, 99.178300907459402, 99.14131643311525, 99.103137164837833, 99.063804644746384, 99.023361481371737, 98.981851304900758, 98.939318721324312, 98.895809265539413, 98.851369353456761, 98.806046233167024, 98.759887935219496, 98.712943222067551, 98.66526153673793, 98.616892950779572, 98.567888111550076, 98.518298188897845, 98.468174821300138, 98.417570061514908, 98.366536321808823, 98.31512631882012, 98.263393018119373, 98.211389578529463, 98.159169296264835, 98.106785548954946, 98.054291739611926, 98.001741240605867, 97.949187337709418, 97.896683174274997, 97.844281695604835, 97.792035593578163, 97.739997251594346, 97.688218689896189, 97.636751511331383, 97.5856468476141, 97.534955306146259, 97.484726917456882, 97.435011083318315, 97.385856525596679, 97.337311235893679, 97.289422426035102, 97.242236479461312, 97.195798903572239, 97.150154283082216, 97.105346234432801, 97.061417361316529, 97.018409211359554, 96.976362234010196, 96.9353157396814, 96.895307860189973, 96.856375510537106, 96.818554352071999, 96.781878757077408, 96.746381774817579, 96.71209509908374, 96.679049037272748, 96.647272481032644, 96.616792878505905, 96.587636208200365, 96.559826954515643, 96.53338808494992, 96.508341029013124, 96.484705658865622, 96.462500271704613, 96.441741573914641, 96.422444666998715, 96.404623035304098, 96.388288535553272, 96.373451388190702, 96.360120170552989, 96.348301811866733, 96.338001590078505, 96.32922313051769, 96.321968406390383, 96.316237741103237, 96.31202981240979, 96.309341658373739, 96.308168685138867, 96.308504676494067, 96.310341805220801, 96.313670646206333, 96.318480191306023, 96.324757865934032, 96.332489547362186, 96.341659584701844, 96.35225082054481, 96.364244614234465, 96.377620866739036, 96.392358047095058, 96.408433220388716, 96.425822077239772, 96.444498964752299, 96.464436918894421, 96.485607698266108, 96.507981819215217, 96.531528592258837, 96.556216159764389, 96.582011534846757, 96.608880641433387, 96.636788355448644, 96.665698547069127, 96.695574123998384, 96.726377075708541, 96.758068518598009, 96.790608742008899, 96.823957255050587, 96.858072834173853, 96.892913571438385, 96.928436923416527, 96.964599760675497, 97.001358417779755, 97.038668743753462, 97.076486152944995, 97.114765676232139, 97.153462012508371, 97.192529580389987, 97.231922570083199, 97.271594995349872, 97.311500745512063, 97.351593637434092, 97.391827467421635, 97.432156062977469, 97.472533334353457, 97.512913325839108, 97.553250266727844, 97.593498621900551, 97.633613141969917, 97.673548912926265, 97.71326140522838, 97.752706522282907, 97.791840648256752, 97.830620695168506, 97.869004149203363, 97.90694911620119, 97.94441436626424, 97.981359377435254, 98.017744378395918, 98.053530390138008, 98.088679266560376, 98.12315373394668, 98.156917429279019, 98.189934937346663, 98.222171826607067, 98.253594683760852, 98.284171147003491, 98.313869937915129, 98.342660891957991, 98.370514987544638, 98.397404373649053, 98.423302395930307, 98.448183621341215, 98.472023861197513, 98.494800192683172, 98.516490978771117, 98.537075886538929, 98.556535903862425, 98.574853354471472, 98.592011911354049, 98.607996608497075, 98.622793850954849, 98.636391423236986, 98.648778496010607, 98.65994563111353, 98.669884784876672, 98.678589309756958, 98.686053954283054, 98.692274861318197, 98.697249564649084, 98.70097698390633, 98.70345741783062, 98.704692535895333, 98.704685368301568, 98.70344029436194, 98.700963029291785, 98.69726060942898, 98.692341375904789, 98.68621495678947, 98.678892247739853, 98.670385391176666, 98.660707754020848, 98.649873904020865, 98.637899584704357, 98.624801688988612, 98.610598231485881, 98.595308319542596, 98.578952123051153, 98.561550843074556, 98.543126679327827, 98.523702796558538, 98.503303289870914, 98.481953149041999, 98.459678221873517, 98.436505176631599, 98.412461463620886, 98.387575275945224, 98.361875509504898, 98.335391722284456, 98.308154092981624, 98.280193379033349, 98.251540874092129, 98.222228365007325, 98.192288088367889, 98.161752686661799, 98.130655164108603, 98.099028842221387, 98.066907315155959, 98.034324404903188, 98.001314116381849, 97.96791059249, 97.934148069170618, 97.900060830549847, 97.865683164203062, 97.831049316607277, 97.796193448834103, 97.761149592540548, 97.725951606312108, 97.690633132413694, 97.65522755400184, 97.619767952852087, 97.584287067654941, 97.548817252931073, 97.513390438618202, 97.478038090378959, 97.442791170679769, 97.407680100687699, 97.372734723034256, 97.337984265489666, 97.303457305594051, 97.269181736288388, 97.235184732587129, 97.201492719333118, 97.168131340074382, 97.135125427099752, 97.102498972671057, 97.070275101484668, 97.038476044396816, 97.007123113442987, 96.976236678182417, 96.945836143393961, 96.915939928151175, 96.886565446299414, 96.857729088359008, 96.829446204873804, 96.801731091224781, 96.774596973926165, 96.74805599841693, 96.722119218363517, 96.696796586482449, 96.672096946893845, 96.648028029011456, 96.624596442976213, 96.601807676633911, 96.579666094061082, 96.558174935636288, 96.537336319654614, 96.517151245481145, 96.497619598235445, 96.478740154999599, 96.460510592538682, 96.442927496520412, 96.425986372220436, 96.409681656696051, 96.394006732410759, 96.378953942288291, 96.364514606175405, 96.350679038688853, 96.337436568420671, 96.324775558475579, 96.312683428309413, 96.301146676840688, 96.290150906799752, 96.279680850284521, 96.269720395485052, 96.260252614541088, 96.251259792494167, 96.242723457293948, 96.23462441081773, 96.22694276086095, 96.219657954054739, 96.212748809665328, 96.206193554229628, 96.19996985698009, 96.194054866009793, 96.188425245129721, 96.18305721136737, 96.177926573056936, 96.173008768468193, 96.168278904923326, 96.163711798346881, 96.159282013198364, 96.154963902729861, 96.15073164951788, 96.146559306212112, 96.142420836447585, 96.138290155864837, 96.134141173181987, 96.129947831264431, 96.125684148136031, 96.121324257876537, 96.116842451350848, 96.112213216713556, 96.107411279635869, 96.102411643199815, 96.097189627405228, 96.09172090823688, 96.085981556239588, 96.079948074546607, 96.07359743631288, 96.066907121500392, 96.059855152965753, 96.052420131801938, 96.044581271885846, 96.036318433583418, 96.027612156568196, 96.018443691707205, 96.008795031970166, 95.99864894232158, 95.987988988552047, 95.976799565010964, 95.965065921201429, 95.952774187200632, 95.939911397870375, 95.926465515824006, 95.912425453117322, 95.897781091633107, 95.882523302130537, 95.866643961931288, 95.850135971219018, 95.832993267926, 95.815210841187223, 95.796784743340694, 95.777712100456867, 95.757991121380087, 95.737621105268545, 95.716602447619607, 95.694936644771317, 95.672626296871002, 95.649675109304141, 95.626087892580017, 95.601870560671969, 95.577030127810005, 95.55157470373014, 95.525513487381872, 95.498856759100704, 95.471615871252695, 95.443803237361749, 95.415432319729646, 95.386517615564216, 95.357074641629737, 95.327119917438992, 95.296670947003619, 95.265746199167069, 95.234365086541743, 95.202547943075231, 95.170316000274013, 95.137691362111497, 95.104696978651717, 95.071356618421888, 95.03769483956475, 95.003736959809544, 94.969509025295963, 94.935037778291459, 94.900350623840723, 94.865475595389867, 94.830441319427578, 94.79527697918752, 94.76001227745823, 94.724677398546419, 94.689302969442409, 94.653920020235859, 94.618559943833532, 94.583254455028111, 94.54803554897228, 94.512935459109201, 94.477986614614395, 94.443221597402868, 94.408673098757191, 94.374373875630937, 94.340356706685867, 94.306654348117434, 94.273299489327442, 94.240324708499799, 94.207762428138352, 94.175644870623699, 94.144004013847479, 94.112871546981438, 94.08227882644033, 94.052256832094599, 94.022836123792857, 93.994046798248988, 93.965918446352347, 93.93848011095767, 93.911760245209791, 93.885786671459613, 93.860586540825366, 93.836186293454446, 93.812611619538032, 93.789887421131937, 93.768037774834923, 93.747085895375477, 93.727054100156366, 93.707963774805563, 93.689835339781709, 93.67268821807906, 93.656540804077295, 93.641410433580631, 93.627313355086898, 93.614264702328072, 93.602278468121327, 93.591367479568646, 93.58154337463958, 93.57281658017348, 93.565196291332185, 93.558690452534535, 93.55330573990274, 93.549047545245926, 93.545919961608206, 93.543925770403476, 93.543066430158945, 93.543342066886908, 93.544751466102525, 93.547292066502763, 93.55095995532001, 93.5557498653626, 93.561655173750523, 93.568667902353866, 93.576778719939995, 93.58597694603111, 93.596250556474118, 93.607586190721008, 93.619969160816495, 93.63338346208765, 93.647811785527139, 93.663235531861403, 93.679634827290144, 93.696988540885172, 93.715274303630565, 93.734468529087337, 93.754546435660984, 93.775482070451119, 93.797248334657198, 93.819817010515251, 93.843158789736719, 93.867243303419173, 93.892039153396482, 93.917513944995491, 93.943634321161611, 93.970365997917256, 93.99767380111291, 94.025521704429778, 94.053872868591597, 94.082689681741002, 94.111933800934281, 94.141566194708162, 94.171547186668192, 94.201836500049936, 94.232393303200794, 94.263176255929096, 94.294143556667876, 94.325252990396535, 94.356461977265283, 94.387727621864613, 94.419006763081782, 94.450256024484915, 94.481431865175608, 94.512490631048465, 94.543388606397215, 94.574082065804873, 94.604527326256189, 94.634680799409153, 94.664499043962721, 94.693938818057504, 94.722957131645146, 94.751511298763674, 94.77955898965385, 94.807058282654168, 94.83396771580955, 94.860246338131304, 94.885853760444377, 94.910750205759584, 94.934896559108395, 94.958254416778061, 94.980786134885633, 95.002454877231301, 95.023224662368762, 95.043060409836158, 95.061927985487728, 95.079794245868456, 95.096627081576685, 95.112395459558442, 95.127069464279998, 95.140620337724982, 95.153020518165562, 95.164243677656486, 95.17426475820379, 95.183060006560638, 95.190607007604228, 95.196884716250551, 95.201873487862954, 95.205555107115586, 95.207912815270703, 95.208931335834336, 95.20859689855358, 95.206897261723626, 95.203821732771033, 95.199361187085941, 95.193508085073503, 95.186256487401863, 95.177602068420413, 95.167542127729618, 95.156075599882726, 95.14320306220138, 95.128926740692904, 95.113250514055252, 95.096179915759791, 95.077722134205459, 95.057886010936585, 95.036682036924205, 95.014122346907214, 94.990220711796425, 94.964992529145661, 94.938454811694371, 94.91062617399254, 94.881526817116224, 94.851178511489323, 94.819604577824293, 94.786829866202154, 94.752880733310036, 94.71778501785839, 94.681572014203567, 94.644272444201022, 94.605918427318684, 94.566543449041134, 94.526182327597539, 94.484871179048909, 94.442647380771149, 94.399549533373033, 94.355617421090955, 94.310891970703153, 94.26541520900669, 94.219230218906631, 94.172381094163185, 94.124912892848741, 94.076871589564675, 94.028304026473918, 93.979257863200601, 93.929781525656495, 93.879924153849558, 93.829735548734433, 93.779266118165154, 93.728566822012027, 93.677689116503757, 93.626684897859946, 93.575606445278112, 93.52450636334008, 93.473437523905005, 93.422453007555518, 93.371606044664745, 93.320949956152376, 93.270538093999548, 93.220423781589901, 93.170660253948427, 93.121300597946586, 93.072397692544044, 93.02400414913744, 92.976172252085647, 92.928953899482451, 92.882400544245669, 92.836563135593053, 92.791492060973269, 92.747237088522269, 92.703847310112806, 92.661371085063877, 92.619855984579672, 92.579348736982126, 92.539895173804098, 92.501540176807808, 92.464327625991501, 92.428300348648065, 92.393500069537097, 92.359967362229753, 92.327741601687137, 92.296860918128544, 92.267362152247173, 92.239280811827328, 92.21265102981674, 92.187505523905898, 92.163875557664085, 92.141790903281233, 92.121279805960199, 92.102368950006849, 92.08508342665813, 92.069446703690247