93.641462432637937, 93.767269512480411, 93.891452327279907, 94.013905887257749, 94.134527091610693, 94.253214821767287, 94.369870032762961, 94.484395842646521, 94.596697619831033, 94.706683068306447, 94.814262310630852, 94.919347968620826, 95.021855241663985, 95.121701982576795, 95.218808770936576, 95.313098983814882, 95.404498863846598, 95.492937584566917, 95.578347312954875, 95.660663269123162, 95.739823783095545, 95.815770348618486, 95.888447673955824, 95.95780372961535, 96.023789792963896, 96.086360489687465, 96.145473832055828, 96.201091253956193, 96.25317764266191, 96.301701367306066, 96.346634304033174, 96.387951857804637, 96.425632980838799, 96.459660187666472, 96.490019566789755, 96.516700788932738, 96.539697111877288, 96.559005381879786, 96.574626031668529, 96.586563075024316, 96.594824097951246, 96.599420246446314, 96.600366210881333, 96.597680207013127, 96.591383953642165, 96.581502646941345, 96.568064931482468, 96.551102867988192, 96.530651897843782, 96.506750804403168, 96.47944167112837, 96.448769836605308, 96.414783846479565, 96.377535402362142, 96.337079307754067, 96.293473411046264, 96.246778545649619, 96.197058467316324, 96.144379788714375, 96.088811911319979, 96.030426954697418, 95.96929968323407, 95.905507430406288, 95.83913002064898, 95.770249688908095, 95.698950997955265, 95.625320753546845, 95.549447917511017, 95.471423518849861, 95.391340562944279, 95.309293938950972, 95.225380325484181, 95.139698094674912, 95.052347214702664, 94.963429150896133, 94.87304676549995, 94.781304216207786, 94.68830685356059, 94.594161117311543, 94.498974431860901, 94.402855100861515, 94.30591220110189, 94.20825547576834, 94.109995227192698, 94.011242209190868, 93.912107519097958, 93.812702489605542, 93.71313858050695, 93.61352727045869, 93.513979948860708, 93.414607807964188, 93.315521735310654, 93.216832206608458, 93.118649179150523, 93.021081985877331, 92.924239230189087, 92.828228681608309, 92.733157172394925, 92.639130495214133, 92.546253301956355, 92.454629003806801, 92.364359672661848, 92.275545943986998, 92.188286921210363, 92.10268008174377, 92.018821184721162, 91.936804180543689, 91.856721122317524, 91.778662079269324, 91.702715052221578, 91.628965891208381, 91.557498215309948, 91.48839333478179, 91.421730175551517, 91.357585206154937, 91.296032367179137, 91.237143003279925, 91.180985797834921, 91.127626710294408, 91.077128916286597, 91.029552750533611, 90.984955652628415, 90.943392115723043, 90.90491363817415, 90.869568678188244, 90.837402611507528, 90.808457692172212, 90.782773016394415, 90.760384489572459, 90.741324796475197, 90.725623374618408, 90.713306390855209, 90.70439672119835, 90.698913933888164, 90.696874275717931, 90.698290661623574, 90.703172667543569, 90.711526526548184, 90.723355128238808, 90.738658021408867, 90.757431419960696, 90.77966821206391, 90.805357972541714, 90.834486978466202, 90.867038227941066, 90.902991462047112, 90.942323189922263, 90.985006716945449, 91.031012175990355, 91.080306561711097, 91.132853767820706, 91.188614627318231, 91.24754695561974, 91.309605596542752, 91.374742471094308, 91.442906629006359, 91.514044302962901, 91.5880989654584, 91.665011388225324, 91.744719704166641, 91.827159471724755, 91.912263741619441, 91.999963125880655, 92.090185869104928, 92.182857921856368, 92.277903016136946, 92.375242742844293, 92.474796631135646, 92.576482229614612, 92.680215189254781, 92.785909347974254, 92.893476816771638, 93.002828067334434, 93.113872021028172, 93.226516139175033, 93.340666514526689, 93.456227963839225, 93.573104121452531, 93.691197533779928, 93.810409754609609, 93.93064144112158, 94.051792450521603, 94.173761937193078, 94.296448450270034, 94.419750031529844, 94.543564313508881, 94.66778861774074, 94.792320053018571, 94.917055613583031, 95.041892277137009, 95.166727102589761, 95.291457327432298, 95.415980464648072, 95.540194399061761, 95.663997483031977, 95.787288631392627, 95.909967415550028, 96.031934156643146, 96.153090017676263, 96.273337094533716, 96.392578505789032, 96.510718481220437, 96.627662448948413, 96.74331712111065, 96.857590577993278, 96.970392350536443, 97.081633501138327, 97.191226702678605, 97.299086315689067, 97.405128463597464, 97.509271105976154, 97.611434109725849, 97.71153931813059, 97.809510617719795, 97.905274002876908, 97.998757638136766, 98.089891918115228, 98.17860952501897, 98.264845483684113, 98.348537214096282, 98.429624581347952, 98.508049942988691, 98.583758193731697, 98.65669680747736, 98.726815876622794, 98.79406814862395, 98.858409059784805, 98.919796766247046, 98.978192172159623, 99.033558955008274, 99.08586358808958, 99.135075360116744, 99.181166391947286, 99.224111650425058, 99.263888959333542, 99.300479007459671, 99.333865353769156, 99.364034429700538, 99.390975538583504, 99.41468085219536, 99.435145404467349, 99.452367082359473, 99.46634661392261, 99.477087553571337, 99.484596264592753, 99.48888189891963, 99.489956374199366, 99.48783434819218, 99.482533190535179, 99.474072951912007, 99.462476330668707, 99.447768636921509, 99.429977754201857, 99.409134098688739, 99.385270576080146, 99.358422536155942, 99.328627725090342, 99.295926235569937, 99.260360454779899, 99.221975010318943, 99.18081671410782, 99.136934504358265, 99.090379385669351, 99.041204367321669, 98.989464399840031, 98.935216309898621, 98.87851873364221, 98.819432048499095, 98.758018303563631, 98.694341148626407, 98.62846576193094, 98.560458776738599, 98.490388206781887, 98.418323370689947, 98.34433481546786, 98.268494239115284, 98.190874412467025, 98.111549100342032, 98.030592982085352, 97.948081571589242, 97.864091136878088, 97.778698619345462, 97.691981552726432, 97.604017981894273, 97.514886381564565, 97.424665574994592, 97.333434652761866, 97.241272891707027, 97.148259674126408, 97.054474407296482, 96.959996443414425, 96.864905000036941, 96.769279081098659, 96.673197398589735, 96.576738294974305, 96.479979666426402, 96.38299888696038, 96.285872733533367, 96.188677312192624, 96.09148798534207, 95.994379300199029, 95.897424918511504, 95.800697547604571, 95.704268872821984, 95.608209491429051, 95.512588848038334, 95.417475171621319, 95.322935414163751, 95.229035191022078, 95.135838723037224, 95.043408780457469, 94.951806628722082, 94.861091976154114, 94.771322923608352, 94.682555916119412, 94.594845696590809, 94.508245261564682, 94.422805819109342, 94.338576748858287, 94.255605564234131, 94.173937876884949, 94.093617363362128, 94.014685734062212, 93.93718270445612, 93.86114596862393, 93.786611175112526, 93.713611905129824, 93.642179653087453, 93.572343809500367, 93.504131646249789, 93.437568304213343, 93.372676783263273, 93.309477934630877, 93.247990455634266, 93.188230886761005, 93.130213611098085, 93.073950856096673, 93.019452697657528, 92.966727066520548, 92.915779756939017, 92.866614437617713, 92.819232664889768, 92.773633898107263, 92.729815517216508, 92.687772842485955, 92.647499156356474, 92.608985727375526, 92.572221836180347, 92.537194803489257, 92.503890020060268, 92.47229097857317, 92.442379307390226, 92.414134806147658, 92.387535483129085, 92.362557594370585, 92.339175684444498, 92.317362628867556, 92.297089678078905, 92.278326502930213, 92.261041241628718, 92.24520054807553, 92.230769641535545, 92.217712357578932, 92.205991200229533, 92.195567395256063, 92.186400944541887, 92.178450681464952, 92.171674327222817, 92.166028548034603, 92.161469013150565, 92.157950453601586, 92.155426721618255, 92.153850850650088, 92.153175115914706, 92.153351095406293, 92.154329731293359, 92.156061391634282, 92.158495932340514, 92.161582759317156, 92.16527089070928, 92.169509019185298, 92.174245574186457, 92.179428784072783, 92.185006738097883, 92.190927448142048, 92.197138910137127, 92.203589165116128, 92.210226359819686, 92.216998806795829, 92.223855043926221, 92.230743893316657, 92.237614519488858, 92.244416486811303, 92.251099816109516, 92.257615040396345, 92.263913259664022, 92.269946194682262, 92.27566623974684, 92.281026514324665, 92.285980913544336, 92.290484157480705, 92.294491839185042, 92.29796047141356, 92.300847532008817, 92.303111507890321, 92.304711937612382, 92.305609452449659, 92.305765815971213, 92.305143962068499, 92.303708031400888, 92.301423406229361, 92.298256743604625, 92.294176006884896, 92.289150495554438, 92.28315087332102, 92.276149194468502, 92.268118928446242, 92.25903498267634, 92.248873723564486, 92.237612995699664, 92.22523213923273, 92.211712005423848, 92.197034970352405, 92.181184946784029, 92.164147394193662, 92.145909326941521, 92.126459320606372, 92.105787516478685, 92.083885624218937, 92.060746922690328, 92.036366258975804, 92.010740045589827, 91.983866255902285, 91.955744417786889, 91.926375605515659, 91.895762429917269, 91.863909026821943, 91.83082104381738, 91.796505625340572, 91.760971396133343, 91.724228443091249, 91.686288295535789, 91.647163903944261, 91.606869617169764, 91.565421158188542, 91.522835598411575, 91.47913133059879, 91.434328040417753, 91.388446676686485, 91.341509420344906, 91.293539652198959, 91.244561919481839, 91.19460190128035, 91.143686372873233, 91.09184316903017, 91.039101146321428, 90.985490144488438, 90.931040946927141, 90.875785240335375, 90.819755573578121, 90.762985315823357, 90.705508614003236, 90.647360349653979, 90.588576095191357, 90.529192069674593, 90.4692450941169, 90.408772546396705, 90.347812315826204, 90.286402757433322, 90.224582646013431, 90.162391130006682, 90.099867685256953, 90.037052068708107, 89.973984272093858, 89.910704475675303, 89.847253002082155, 89.783670270311703, 89.719996749939, 89.65627291559268, 89.592539201748423, 89.528835957892326, 89.465203404105679, 89.401681587121573, 89.338310336903305, 89.27512922379303, 89.212177516278317, 89.149494139424263, 89.087117634015954, 89.025086116456009, 88.963437239461726, 88.902208153601833, 88.841435469716416, 88.781155222257368, 88.721402833589138, 88.66221307928619, 88.603620054461857, 88.545657141164284, 88.488356976870193, 88.431751424108569, 88.375871541243342, 88.320747554442121, 88.266408830859163, 88.212883853054421, 88.160200194673735, 88.108384497410171, 88.057462449266723, 88.007458764137667, 87.958397162724211, 87.910300354800029, 87.863190022837927, 87.81708680700892, 87.772010291563006, 87.727978992598338, 87.685010347224249, 87.643120704122722, 87.602325315509219, 87.562638330493215, 87.524072789837533, 87.486640622112446, 87.450352641239462, 87.415218545419251, 87.38124691743316, 87.34844522631019, 87.316819830346603, 87.286375981464644, 87.257117830896121, 87.229048436173088, 87.202169769408727, 87.176482726847752, 87.151987139665081, 87.128681785991205, 87.106564404138695, 87.085631707005348, 87.065879397626901, 87.047302185850796, 87.029893806102379, 87.013647036211523, 86.998553717269274, 86.984604774480871, 86.971790238980688, 86.960099270574673, 86.949520181373856, 86.940040460282077, 86.931646798299028, 86.92432511460153, 86.918060583361765, 86.912837661263197, 86.908640115672739, 86.905451053427626, 86.903252950194826, 86.902027680360234, 86.90175654740446, 86.902420314721567, 86.90399923683735, 86.906473090981919, 86.909821208973341, 86.914022509366788, 86.919055529825201, 86.924898459666323, 86.931529172541175, 86.938925259199792, 86.947064060299354, 86.955922699209907, 86.965478114774868, 86.975707093980503, 86.986586304492562, 86.998092327015613, 87.010201687433579, 87.02289088868848, 87.03613644235611, 87.04991489987728, 87.064202883405073, 87.078977116227591, 87.094214452727925, 87.109891907843121, 87.125986685984728, 87.14247620938518, 87.159338145834127, 87.176550435770338, 87.19409131869665, 87.211939358884479, 87.230073470337757, 87.248472940985863, 87.267117456076747, 87.28598712074222, 87.305062481710479, 87.324324548138733, 87.343754811543846, 87.36333526480756, 87.383048420235752, 87.40287732665162, 87.422805585504804, 87.442817365979465, 87.462897419085508, 87.483031090719848, 87.503204333684153, 87.523403718648737, 87.543616444052731, 87.563830344933066, 87.584033900674498, 87.604216241677136, 87.624367154936877, 87.644477088537386, 87.664537155053011, 87.684539133863041, 87.704475472381034, 87.724339286202181, 87.744124358175256, 87.76382513640435, 87.783436731191728, 87.802954910928378, 87.822376096946954, 87.841697357346888, 87.860916399807707, 87.880031563405907, 87.899041809451248, 87.91794671136185, 87.936746443597087, 87.955441769668496, 87.974034029252181, 87.992525124424319, 88.010917505044887, 88.029214153315863, 88.047418567538401, 88.065534745099782, 88.083567164715546, 88.101520767958618, 88.119400940106388, 88.137213490334531, 88.15496463129378, 88.172660958099726, 88.19030942677125, 88.207917332152036, 88.225492285349489, 88.243042190729284, 88.260575222499554, 88.278099800923741, 88.295624568198306, 88.313158364034564, 88.330710200981997, 88.34828923953215, 88.365904763042096, 88.383566152516366, 88.401282861287285, 88.419064389632155, 88.436920259367724, 88.454859988461266, 88.472893065697122, 88.491028925438712, 88.509276922525132, 88.527646307340916, 88.546146201098225, 88.564785571369455, 88.583573207908444, 88.602517698798763, 88.621627406964166, 88.640910447080529, 88.660374662923118, 88.680027605186623, 88.699876509810636, 88.719928276847398, 88.740189449902275, 88.760666196181901, 88.781364287180693, 88.802289080036772, 88.823445499587265, 88.844838021151801, 88.866470654072629, 88.888346926038295, 88.91046986821587, 88.93284200121748, 88.955465321925075, 88.978341291193857, 89.001470822458558, 89.024854271259841, 89.048491425711603, 89.072381497925136, 89.096523116407596, 89.120914319448218, 89.145552549507144, 89.1704346486178, 89.195556854814384, 89.220914799592776, 89.246503506413617, 89.272317390253818, 89.298350258210817, 89.324595311164032, 89.351045146494641, 89.377691761865307, 89.404526560058301, 89.431540354869199, 89.458723378054387, 89.486065287324195, 89.513555175377547, 89.541181579968509, 89.568932494995281, 89.596795382601442, 89.624757186275616, 89.652804344936882, 89.680922807990086, 89.709098051334138, 89.737315094306567, 89.765558517543013, 89.793812481733113, 89.822060747249012, 89.8502866946246, 89.878473345860684, 89.906603386530108, 89.934659188656198, 89.962622834337154, 89.990476140086145, 90.01820068185863, 90.045777820733818, 90.073188729219595, 90.100414418147281, 90.12743576412214, 90.154233537494591, 90.180788430816861, 90.207081087747724, 90.233092132368995, 90.25880219887506, 90.284191961596875, 90.309242165321791, 90.333933655868378, 90.358247410876857, 90.382164570773895, 90.405666469870297, 90.428734667551154, 90.451350979514885, 90.473497509020646, 90.495156678101196, 90.516311258697854, 90.536944403677012, 90.55703967768352, 90.576581087789791, 90.595553113897225, 90.613940738847688, 90.631729478204107, 90.648905409655328, 90.665455202006527, 90.681366143712012, 90.696626170909795, 90.711223894917396, 90.725148629148549, 90.738390415411686, 90.750940049551019, 90.762789106391224, 90.773929963949357, 90.784355826875654, 90.79406074908826, 90.803039655565939, 90.811288363264168, 90.818803601121701, 90.825583029124587, 90.831625256395995, 90.836929858282019, 90.841497392402985, 90.845329413642943, 90.848428488049933, 90.850798205620578, 90.852443191944843, 90.853369118687667, 90.853582712885256, 90.853091765034151, 90.851905135956073, 90.850032762417754, 90.847485661491433, 90.844275933639068, 90.840416764507893, 90.835922425424798, 90.830808272577343, 90.82509074487551, 90.818787360482119, 90.811916712010316, 90.804498460379989, 90.796553327332248, 90.788103086599804, 90.779170553733621, 90.76977957458746, 90.759955012464104, 90.749722733927854, 90.739109593290195, 90.728143415776117, 90.716852979382494, 90.705267995437538, 90.693419087876805, 90.681337771247769, 90.669056427461086, 90.656608281305026, 90.644027374742194, 90.631348540010009, 90.618607371545636, 90.605840196760383, 90.593084045688016, 90.580376619532771, 90.567756258146147, 90.555261906460402, 90.542933079910654, 90.53080982887586, 90.518932702173402, 90.507342709639772, 90.496081283835082, 90.485190240906078, 90.474711740646825, 90.464688245795429, 90.45516248060683, 90.44617738874264, 90.437776090520217, 90.430001839563261, 90.422897978898334, 90.416507896541304, 90.410874980619113, 90.406042574073552, 90.402053928992331, 90.398952160616602, 90.396780201071209, 90.395580752867147, 90.395396242225033, 90.396268772267788, 90.398240076134272, 90.40135147006167, 90.405643806488314, 90.411157427227451, 90.417932116760525, 90.42600705570365, 90.43542077449591, 90.446211107360213, 90.458415146588493, 90.47206919720027, 90.487208732026048, 90.503868347264472, 90.522081718563911, 90.541881557677073, 90.563299569737623, 90.586366411207905, 90.611111648544792, 90.63756371763138, 90.665749884021565, 90.695696204042704, 90.727427486802782, 90.760967257144927, 90.79633771959459, 90.833559723341438, 90.872652728297268, 90.913634772271422, 90.956522439303853, 91.001330829193165, 91.04807352825901, 91.096762581373625, 91.147408465299137, 91.200020063363453, 91.254604641508365, 91.311167825740654, 91.369713581016583, 91.43024419158769, 91.492760242836766, 91.557260604627231, 91.623742416192499, 91.692201072586499, 91.762630212717809, 91.835021708985479, 91.909365658536018, 91.985650376156883, 92.063862388822002, 92.143986431902121, 92.226005447050738, 92.309900581776503, 92.395651190709856, 92.48323483856926, 92.572627304832537, 92.663802590116489, 92.756732924264412, 92.851388776142983, 92.94773886514416, 93.045750174389269, 93.145387965629183, 93.24661579583281, 93.349395535454391, 93.453687388369062, 93.55944991346432, 93.666640047871084, 93.775213131820507, 93.885122935107489, 93.99632168514097, 94.108760096561412, 94.222387402401083, 94.337151386763821, 94.452998418998064, 94.569873489335563, 94.687720245966787, 94.80648103352236, 94.926096932929582, 95.046507802608375, 95.167652320975023, 95.289468030214039, 95.411891381283297, 95.534857780112674, 95.658301634955706, 95.782156404853481, 95.906354649168421, 96.030828078144111, 96.155507604445717, 96.280323395637467, 96.405204927547402, 96.530081038474904, 96.654879984189293, 96.779529493672712, 96.903956825555525, 97.028088825193436, 97.151851982335103, 97.275172489327119, 97.397976299804313, 97.52018918781134, 97.64173680730093, 97.762544751956057, 97.882538615279387, 98.001644050895834, 98.119786833013109, 98.236892916983237, 98.352888499911202, 98.467700081252403, 98.581254523346118, 98.693479111825297, 98.804301615850505, 98.913650348109229, 99.021454224527034, 99.127642823633906, 99.232146445531654, 99.334896170407191, 99.435823916537089, 99.534862497730259, 99.631945680154729, 99.72700823849631, 99.819986011395983, 99.910815956116096, 99.999436202382086, 100.08578610535272, 100.16980629766661, 100.25143874051874, 100.33062677371871, 100.4073151646835, 100.48145015632063, 100.55297951375626, 100.62185256986487, 100.68802026955831, 100.75143521279358, 100.81205169625871, 100.86982575369835, 100.92471519484214, 100.97667964289882, 101.0256805705824, 101.07168133463635, 101.11464720882462, 101.15454541535772, 101.19134515472687, 101.22501763391661, 101.25553609297155, 101.28287582989188, 101.30701422383571, 101.32793075660548, 101.34560703240099, 101.36002679581891, 101.37117594808385, 101.37904256149571, 101.38361689208041, 101.38489139043261, 101.38286071074063, 101.37752171798628, 101.36887349331226, 101.3569173375534, 101.34165677292856, 101.32309754289246, 101.30124761014689, 101.27611715281498, 101.24771855878167, 101.21606641820578, 101.1811775142118, 101.14307081176987, 101.10176744477431, 101.05729070133364, 101.00966600728584, 100.95892090795375, 100.90508504815855, 100.84819015050951, 100.78826999199052, 100.72536037886472, 100.65949911992131, 100.59072599808802, 100.51908274043738, 100.44461298661199, 100.36736225569972, 100.28737791158883, 100.20470912683369, 100.11940684506561, 100.03152374198183, 99.941114184949043, 99.84823419125722, 99.752941385062954, 99.655294953059226, 99.555355598914218, 99.453185496517449, 99.348848242077949, 99.242408805114579, 99.133933478385828, 99.023489826800628, 98.911146635357156, 98.796973856156953, 98.681042554539218, 98.563424854384536, 98.444193882636398, 98.323423713088445, 98.201189309488328, 98.077566468006566, 97.952631759122127, 97.826462468974796, 97.699136540235969, 97.570732512548517, 97.441329462588087, 97.311006943797821, 97.179844925847277, 97.047923733869396, 96.915323987526136, 96.782126539955669, 96.648412416653102, 96.514262754336755, 96.379758739851269, 96.244981549160173, 96.110012286478238, 95.974931923595577, 95.839821239443424, 95.704760759953245, 95.569830698256851, 95.435110895280175, 95.300680760776331, 95.166619214848993, 95.033004630012115, 94.899914773834524, 94.76742675221432, 94.635616953330512, 94.504560992315191, 94.374333656692158, 94.245008852623457, 94.116659552007903, 93.989357740472173, 93.863174366295468, 93.738179290307116, 93.614441236796338, 93.492027745470608, 93.371005124500329, 93.251438404684663, 93.13339129477275, 93.016926137973229, 92.902103869685533, 92.788983976480807, 92.677624456365365, 92.568081780352188, 92.460410855369588, 92.354664988531027, 92.250895852792212, 92.149153454017082, 92.049486099476269, 91.951940367796311, 91.856561080380985, 91.763391274321251, 91.672472176810189, 91.583843181078791, 91.497541823865603, 91.413603764432509, 91.332062765138303, 91.252950673578084, 91.176297406298332, 91.102130934092827, 91.03047726888596, 90.961360452206577, 90.894802545255217, 90.83082362056571, 90.769441755261681, 90.71067302590518, 90.654531504935719, 90.601029258695078, 90.550176347031567, 90.50198082447865, 90.456448742997281, 90.413584156275462, 90.373389125571279, 90.335863727089986, 90.301006060879971, 90.268812261234714, 90.239276508584041, 90.212391042858556, 90.188146178308912, 90.166530319761193, 90.147529980288198, 90.131129800275033, 90.117312567857255, 90.106059240707978, 90.097348969149976, 90.091159120566886, 90.087465305088102, 90.086241402519619, 90.087459590493424, 90.091090373805855, 90.097102614916537, 90.10546356557586, 90.116138899551217, 90.129092746419118, 90.144287726391681, 90.161684986143143, 90.181244235602819, 90.202923785681122, 90.226680586891788, 90.252470268836817, 90.280247180516326, 90.309964431428057, 90.341573933419454, 90.375026443254725, 90.410271605859649, 90.447257998205941, 90.485933173797605, 90.526243707720013, 90.568135242214112, 90.611552532735644, 90.656439494462106, 90.702739249207085, 90.750394172703494, 90.79934594221649, 90.849535584447111, 90.900903523686821, 90.953389630185143, 91.006933268690503, 91.061473347125556, 91.116948365358965, 91.173296464034152, 91.23045547341836, 91.28836296223183, 91.346956286421715, 91.406172637841621, 91.465949092800372, 91.52622266044348, 91.586930330930826, 91.648009123374109, 91.709396133499439, 91.771028581000493, 91.83284385654531, 91.89477956840615, 91.956773588676711, 92.018764099043693, 92.080689636082624, 92.142489136043466, 92.204101979097032, 92.265468033010933, 92.326527696224815, 92.387221940297621, 92.447492351696013, 92.507281172898232, 92.566531342785922, 92.625186536297093, 92.683191203315758, 92.740490606772937, 92.797030859935006, 92.852758962857365, 92.907622837979488, 92.961571364841703, 93.014554413901251, 93.066522879429186, 93.117428711468563, 93.167224946835759, 93.215865739147546, 93.263306387858037, 93.309503366289164, 93.354414348640503, 93.397998235964565, 93.440215181093933, 93.481026612509581, 93.520395257137153, 93.558285162062759, 93.594661715157457, 93.629491664602142, 93.662743137305554, 93.694385656208055, 93.724390156464807, 93.75272900050399, 93.779375991955234, 93.804306388444203, 93.827496913252432, 93.848925765838104, 93.868572631219166, 93.886418688217105, 93.902446616562258, 93.916640602862842, 93.928986345438489, 93.939471058023528, 93.948083472340528, 93.954813839552699, 93.959653930596673, 93.962597035403903, 93.963637961017199, 93.962773028608922, 93.96000006941037, 93.955318419560001, 93.948728913880885, 93.940233878597283, 93.929837123001278, 93.917543930081266, 93.903361046123678, 93.887296669301975, 93.869360437264817, 93.849563413738551, 93.827918074157949, 93.804438290340542, 93.779139314219762, 93.752037760653536, 93.723151589324573, 93.692500085749856, 93.660103841416699, 93.625984733063177, 93.590165901122589, 93.552671727349548, 93.51352781164762, 93.47276094811869, 93.430399100354038, 93.386471375986986, 93.34100800052893, 93.2940402905095, 93.245600625942885, 93.195722422141174, 93.144440100898152, 93.091789061065143, 93.037805648541763, 92.982527125705033, 92.925991640298975, 92.868238193809262, 92.809306609346351, 92.749237499059078, 92.688072231106432, 92.625852896207192, 92.56262227379527, 92.498423797803596, 92.433301522100379, 92.367300085604484, 92.300464677102525, 92.232840999793893, 92.164475235587446, 92.095414009175798, 92.025704351911727, 91.955393665510982, 91.884529685607873, 91.813160445187378, 91.741334237919148, 91.669099581418436, 91.596505180458806, 91.523599890161023, 91.450432679183749, 91.377052592939464, 91.303508716861941, 91.229850139747469, 91.156125917196604, 91.082385035179257, 91.008676373747122, 90.935048670918022, 90.861550486756713, 90.78823016767349, 90.715135810966245, 90.64231522962848, 90.569815917446334, 90.497685014407011, 90.42596927244243, 90.354715021529316, 90.283968136168923, 90.213774002266874, 90.144177484436867, 90.075222893747565, 90.00695395593489, 89.939413780100992, 89.872644827918222, 89.806688883361687, 89.741587022986849, 89.677379586773952, 89.614106149558239, 89.551805493063412, 89.4905155785586, 89.430273520156007, 89.371115558767116, 89.313077036735365, 89.256192373161085, 89.200495039937223, 89.146017538509696, 89.092791377380266, 89.04084705036577, 88.990214015629562, 88.940920675499044, 88.892994357083424, 88.846461293705545, 88.801346607160369, 88.757674290813085, 88.715467193548662, 88.674747004584859, 88.635534239159099, 88.597848225101018, 88.561707090298796, 88.527127751071191, 88.494125901452563, 88.462716003399777, 88.432911277929293, 88.404723697191727, 88.378163977489862, 88.353241573248141, 88.329964671936693, 88.308340189957732, 88.288373769497227, 88.27006977634521, 88.253431298690117, 88.238460146887562, 88.225156854206915, 88.213520678557089, 88.20354960519164, 88.195240350393917, 88.188588366141829, 88.183587845750992, 88.180231730494285, 88.178511717195747, 88.178418266795973, 88.179940613884526, 88.183066777196046, 88.187783571064173, 88.19407661782769, 88.201930361183543, 88.211328080477998, 88.222251905929824, 88.234682834776379, 88.24860074833316, 88.263984429958342, 88.280811583910562, 88.299058855089569, 88.318701849648335, 88.339715156463129, 88.362072369449606, 88.385746110710272, 88.410708054499651, 88.436928951991533, 88.464378656832494, 88.493026151465983, 88.522839574209115, 88.553786247064778, 88.58583270425099, 88.618944721428136, 88.653087345604476, 88.68822492570014, 88.724321143748085, 88.761339046711413, 88.799241078894227, 88.837989114923545, 88.87754449327997, 88.917868050351601, 88.958920154988689, 89.000660743532933, 89.043049355296645, 89.086045168465347, 89.129607036397985, 89.173693524297363, 89.218262946223774, 89.263273402423479, 89.308682816944156, 89.354448975508902, 89.40052956361852, 89.446882204853907, 89.493464499347652, 89.540234062395186, 89.587148563174694, 89.634165763544686, 89.681243556888262, 89.728340006972743, 89.775413386792366, 89.822422217363027, 89.869325306435684, 89.916081787097028, 89.962651156224879, 90.008993312764886, 90.055068595796712, 90.10083782235597, 90.146262324979844, 90.191303988942948, 90.235925289150657, 90.280089326656423, 90.323759864771446, 90.366901364732541, 90.4094790208961, 90.451458795425808, 90.492807452441099, 90.533492591594481, 90.573482681045562, 90.612747089800109, 90.65125611938231, 90.688981034809728, 90.725894094839035, 90.761968581452592, 90.797178828556497, 90.831500249858237, 90.864909365897034, 90.897383830197001, 90.928902454514159, 90.959445233151214, 90.988993366311604, 91.017529282466597, 91.045036659709552, 91.071500446072335, 91.096906878778668, 91.121243502411048, 91.144499185967902, 91.166664138787965, 91.187729925321847, 91.207689478728142, 91.226537113275668, 91.244268535531901, 91.260880854319723, 91.276372589425236, 91.290743679040972, 91.303995485927629, 91.316130802282146, 91.327153853296821, 91.337070299399386, 91.345887237160227, 91.35361319885935, 91.360258150702336, 91.365833489678224, 91.37035203905225, 91.373828042488313, 91.376277156796462, 91.377716443302234, 91.378164357835985, 91.37764073934197, 91.376166797106293, 91.373765096607258, 91.370459543989455, 91.366275369167042, 91.361239107561062, 91.35537858047806, 91.348722874137295, 91.34130231735773, 91.333148457912444, 91.324294037565991, 91.314772965805375, 91.304620292280077, 91.293872177967401, 91.282565865079633, 91.270739645731823, 91.258432829390173, 91.245685709121389, 91.232539526665775, 91.21903643635784, 91.205219467918482, 91.191132488145541, 91.176820161529719, 91.162327909824228, 91.147701870598056, 91.132988854803784, 91.118236303391711, 91.103492243003828, 91.08880524078171, 91.074224358323633, 91.059799104828016, 91.045579389459746, 91.031615472979126, 91.017957918671513, 91.004657542620095, 90.991765363361552, 90.979332550967783, 90.967410375597268, 90.956050155559154, 90.94530320493611, 90.935220780811221, 90.925854030144947, 90.917253936349596, 90.909471265609724, 90.902556512995545, 90.896559848419741, 90.891531062486422, 90.88751951228177, 90.884574067158766, 90.882743054564514, 90.882074205962951, 90.882614602904397, 90.884410623292922, 90.887507887904832, 90.891951207209118, 90.897784528543781, 90.905050883698834, 90.913792336960199, 90.924049933665117, 90.935863649322968, 90.949272339353044, 90.964313689491377, 90.981024166918175, 90.999438972158529, 91.019591991806308, 91.04151575212272, 91.065241373559928, 91.090798526259647, 91.11821538657604, 91.147518594671538, 91.178733213234054, 91.211882687362589, 91.246988805668821, 91.284071662638951, 91.323149622302637, 91.364239283252232, 91.407355445055487, 91.452511076103733, 91.499717282937993, 91.548983281091097, 91.600316367486101, 91.65372189442887, 91.709203245229475, 91.766761811490028, 91.826396972091473, 91.888106073911374, 91.951884414305283, 92.017725225380033, 92.085619660087289, 92.155556780165242, 92.227523545950945, 92.301504808090087, 92.377483301162442, 92.45543963924618, 92.535352313437315, 92.617197691342639, 92.700950018559197, 92.786581422155834, 92.874061916165189, 92.963359409098985, 93.054439713491192, 93.14726655747647, 93.241801598407491, 93.338004438512556, 93.435832642594406, 93.535241757766627, 93.636185335225449, 93.73861495405049, 93.842480247025321, 93.947728928469843, 94.054306824071617, 94.162157902701594, 94.271224310200296, 94.381446405114474, 94.492762796365881, 94.605110382829679, 94.718424394798205, 94.832638437306031, 94.947684535286257, 95.063493180530372, 95.179993380418594, 95.29711270838834, 95.41477735610475, 95.532912187295878, 95.651440793214405, 95.770285549683535, 95.889367675685762, 96.008607293449018, 96.12792348998471, 96.247234380029241, 96.3664571703398, 96.485508225293401, 96.604303133736053, 96.722756777027868, 96.84078339822878, 96.958296672367126, 97.075209777732795, 97.19143546813504, 97.306886146063434, 97.421473936689495, 97.535110762645587, 97.647708419515908, 97.759178651973798, 97.869433230498146, 97.978384028601667, 98.085943100500884, 98.192022759159897, 98.296535654635647, 98.39939485265478, 98.500513913349806, 98.599806970082199, 98.697188808278995, 98.792574944210259, 98.885881703633302, 98.977026300229284, 99.065926913758247, 99.15250276785774, 99.236674207410928, 99.318362775408545, 99.397491289231652, 99.473983916278755, 99.547766248865145, 99.618765378318685, 99.686909968199245, 99.752130326568277, 99.814358477236084, 99.873528229914228, 99.929575249201505, 99.982437122332925, 100.03205342562141, 100.0783657895231, 100.12131796225786, 100.16085587191822, 100.19692768699946, 100.22948387528723, 100.25847726103737, 100.28386308038708, 100.3055990349341, 100.32364534342635, 100.33796479150206, 100.34852277942437, 100.35528736775561, 100.35822932091637, 100.35732214857977, 100.35254214484908, 100.34386842517164, 100.33128296094246, 100.3147706117542, 100.29431915524975, 100.26991931453904, 100.24156478314086, 100.20925224741454, 100.17298140644765, 100.13275498936832, 100.08857877005373, 100.04046157920679, 99.988415313778219, 99.932454943711519, 99.872598515990305, 99.808867155973189, 99.741285066000017, 99.669879521257954, 99.594680862898414, 99.515722488397614, 99.433040839156973, 99.346675385341115, 99.256668607955007, 99.163065978164084, 99.065915933862769, 98.965269853501653, 98.861182027183688, 98.753709625044337, 98.642912662932773, 98.528853965413262, 98.411599126108982, 98.291216465413399, 98.16777698559666, 98.041354323336719, 97.912024699708084, 97.7798668676636, 97.644962057046769, 97.50739391717461, 97.36724845703462, 97.224613983140657, 97.079581035094179, 96.932242318903789, 96.782692638112096, 96.631028822786959, 96.477349656432722, 96.321755800881562, 96.164349719225314, 96.005235596851634, 95.844519260650173, 95.682308096456367, 95.51871096480059, 95.353838115037206, 95.187801097923256, 95.020712676723846, 94.852686736920305, 94.683838194598309, 94.514282903597788, 94.344137561503672, 94.173519614561442, 94.002547161601271, 93.831338857055385, 93.660013813155814, 93.488691501399657, 93.317491653370297, 93.146534161003885, 92.97593897639203, 92.805826011210925, 92.636315035869245, 92.46752557846645, 92.299576823655272, 92.132587511500375, 91.966675836427697, 91.801959346358046, 91.638554842118026, 91.476578277223567, 91.316144658128508, 91.157367945033457, 91.000360953346984, 90.845235255893456, 90.69210108595972, 90.541067241272842, 90.392240989001252, 90.245727971869073, 90.101632115475198, 89.960055536905401, 89.821098454725899, 89.684859100446573, 89.551433631538899, 89.420916046093808, 89.293398099203827, 89.168969221150306, 89.047716437477987, 88.929724291034603, 88.815074766053968, 88.70384721435795, 88.596118283751338, 88.491961848681086, 88.391448943231282, 88.29464769652013, 88.2016232705665, 88.112437800688483, 88.027150338496369, 87.945816797538185, 87.868489901655465, 87.795219136103285, 87.726050701485875, 87.661027470557428, 87.600188947934853, 87.543571232766183, 87.49120698439566, 87.443125391064356, 87.399352141681305, 87.359909400698754, 87.324815786120794, 87.294086350671975, 87.267732566151068, 87.245762310989392, 87.228179861032871, 87.214985883562022, 87.206177434561781, 87.201747959250227, 87.201687295870983, 87.205981682752878, 87.214613768635118, 87.22756262625505, 87.244803769190838, 87.266309171949644, 87.292047293287737, 87.321983102745847, 87.356078110381247, 87.394290399673096, 87.436574663575186, 87.482882243689076, 87.533161172522995, 87.587356218804672, 87.64540893580768, 87.707257712652051, 87.772837828535344, 87.842081509846452, 87.914917990113779, 87.991273572734826, 88.071071696432924, 88.154233003381407, 88.240675409937651, 88.330314179920734, 88.423062000370123, 88.518829059714378, 88.617523128281817, 88.719049641078172, 88.823311782757656, 88.930210574708681, 89.039644964175238, 89.151511915332705, 89.26570650223276, 89.382122003533993, 89.500649998928424, 89.621180467176998, 89.743601885660752, 89.867801331357541, 89.993664583148373, 90.121076225358962, 90.249919752439737, 90.380077674685779, 90.51143162489852, 90.643862465888162, 90.777250398716177, 90.911475071576589, 91.046415689212324, 91.181951122763905, 91.317960019947563, 91.454320915456464, 91.590912341483005, 91.727612938255561, 91.864301564485658, 92.000857407620401, 92.13716009379533, 92.273089797383349, 92.408527350035328, 92.54335434910756, 92.677453265374439, 92.810707549921602, 92.943001740118689, 93.07422156457018, 93.204254046943262, 93.332987608573944, 93.460312169753223, 93.586119249595683, 93.710302064395151, 93.832755624373078, 93.953376828725979, 94.072064558882573, 94.188719769878233, 94.303245579761779, 94.415547356946306, 94.525532805421705, 94.633112047746138, 94.738197705736113, 94.840704978779229, 94.940551719692095, 95.037658508051848, 95.131948720930183, 95.223348600961899, 95.311787321682175, 95.397197050070162, 95.479513006238463, 95.558673520210789, 95.634620085733786, 95.707297411071096, 95.77665346673065, 95.842639530079211, 95.905210226802765, 95.964323569171157, 96.019940991071479, 96.072027379777168, 96.120551104421352, 96.165484041148474, 96.206801594919938, 96.244482717954114, 96.278509924781787, 96.30886930390507, 96.335550526048024, 96.358546848992574, 96.377855118995058, 96.393475768783802, 96.40541281213963, 96.413673835066533, 96.418269983561629, 96.419215947996634, 96.416529944128399, 96.410233690757465, 96.400352384056646, 96.38691466859774, 96.369952605103492, 96.349501634959111, 96.325600541518455, 96.298291408243657, 96.267619573720594, 96.233633583594866, 96.196385139477457, 96.15592904486941, 96.112323148161579, 96.065628282764948, 96.015908204431682, 95.963229525829689, 95.907661648435351, 95.849276691812733, 95.788149420349413, 95.724357167521603, 95.657979757764281, 95.589099426023438, 95.51780073507058, 95.44417049066216, 95.368297654626303, 95.290273255965175, 95.210190300059594, 95.128143676066315, 95.044230062599468, 94.958547831790213, 94.871196951818035, 94.782278888011433, 94.691896502615265, 94.600153953323101, 94.507156590675891, 94.413010854426872, 94.317824168976202, 94.221704837976844, 94.124761938217191, 94.02710521288364, 93.928844964308013, 93.830091946306197, 93.730957256213287, 93.631552226720842, 93.531988317622265, 93.432377007574004, 93.332829685976023, 93.233457545079503, 93.134371472425954, 93.035681943723773, 92.937498916265824, 92.839931722992645, 92.743088967304402, 92.647078418723623, 92.552006909510226, 92.457980232329433, 92.365103039071641